t,rsp1,ppg1,rsp2,ppg2
0,0.35386,0.43597,0.20626,0.18866
0.008,0.35679,0.43206,0.20821,0.20137
0.016,0.35875,0.42815,0.21017,0.21994
0.024,0.36168,0.42424,0.21114,0.2522
0.032,0.36364,0.42131,0.2131,0.29717
0.04,0.36559,0.41838,0.21408,0.35288
0.048,0.36657,0.4174,0.21603,0.4174
0.056,0.36852,0.41642,0.21701,0.48778
0.064,0.36852,0.41544,0.21799,0.55523
0.072,0.36852,0.41447,0.21896,0.6129
0.08,0.36852,0.41251,0.21994,0.6608
0.088,0.36755,0.41153,0.22092,0.70186
0.096,0.36657,0.40958,0.2219,0.73412
0.104,0.36559,0.40762,0.2219,0.75855
0.112,0.36168,0.40665,0.22287,0.77322
0.12,0.35875,0.40665,0.22287,0.78104
0.128,0.35288,0.40665,0.22287,0.78397
0.136,0.34702,0.40762,0.22287,0.78201
0.144,0.34115,0.4086,0.22287,0.77419
0.152,0.33431,0.4086,0.2219,0.76246
0.16,0.32747,0.41056,0.2219,0.7478
0.168,0.3216,0.41153,0.2219,0.72923
0.176,0.31183,0.41153,0.2219,0.7087
0.184,0.30303,0.41056,0.22092,0.68622
0.192,0.29228,0.4086,0.21994,0.66178
0.2,0.28152,0.40665,0.21799,0.63832
0.208,0.26882,0.40469,0.21603,0.61779
0.216,0.25611,0.40469,0.21505,0.59824
0.224,0.24242,0.40567,0.2131,0.57869
0.232,0.22874,0.4086,0.21114,0.55816
0.24,0.21799,0.41251,0.20919,0.53666
0.248,0.20626,0.42033,0.20821,0.51613
0.256,0.19648,0.43206,0.20626,0.49658
0.264,0.18768,0.45259,0.2043,0.47703
0.272,0.17791,0.4741,0.20332,0.45943
0.28,0.16911,0.4956,0.20137,0.44282
0.288,0.16129,0.51808,0.20039,0.4262
0.296,0.15347,0.5347,0.19844,0.40958
0.304,0.14663,0.55034,0.19746,0.39296
0.312,0.14076,0.56403,0.19648,0.37732
0.32,0.13685,0.57576,0.1955,0.36364
0.328,0.13294,0.58456,0.19453,0.34409
0.336,0.13001,0.59238,0.19453,0.32649
0.344,0.1261,0.59629,0.19453,0.31476
0.352,0.12414,0.59922,0.19453,0.3001
0.36,0.12121,0.60117,0.19453,0.28641
0.368,0.11926,0.60215,0.19453,0.27468
0.376,0.11632,0.60313,0.1955,0.26491
0.384,0.11437,0.60313,0.19648,0.25513
0.392,0.11241,0.60117,0.19746,0.24536
0.4,0.11046,0.59824,0.19844,0.23656
0.408,0.1085,0.59335,0.20039,0.22776
0.416,0.10655,0.58553,0.20235,0.22092
0.424,0.10557,0.57771,0.2043,0.2131
0.432,0.10166,0.57185,0.20626,0.20528
0.44,0.098729,0.56207,0.20821,0.19844
0.448,0.094819,0.54741,0.20919,0.19257
0.456,0.089932,0.53372,0.21114,0.18866
0.464,0.086022,0.52102,0.21212,0.18475
0.472,0.082111,0.50929,0.2131,0.1828
0.48,0.078201,0.50244,0.21505,0.17986
0.488,0.075269,0.49756,0.21603,0.17791
0.496,0.070381,0.4956,0.21701,0.17498
0.504,0.065494,0.49462,0.21701,0.17107
0.512,0.060606,0.49365,0.21799,0.16911
0.52,0.054741,0.49365,0.21896,0.16813
0.528,0.048876,0.49365,0.21994,0.16618
0.536,0.043988,0.49169,0.21994,0.16422
0.544,0.038123,0.48876,0.21994,0.16227
0.552,0.033236,0.4868,0.21896,0.16031
0.56,0.028348,0.48387,0.21896,0.16031
0.568,0.024438,0.48094,0.21799,0.16129
0.576,0.022483,0.47801,0.21799,0.16325
0.584,0.01955,0.47507,0.21701,0.1652
0.592,0.01955,0.47116,0.21603,0.16716
0.6,0.018573,0.46823,0.21505,0.16813
0.608,0.01955,0.46334,0.21505,0.17009
0.616,0.021505,0.45846,0.21505,0.17204
0.624,0.02346,0.45357,0.21408,0.17302
0.632,0.026393,0.44868,0.21408,0.174
0.64,0.030303,0.44379,0.21408,0.17595
0.648,0.035191,0.43891,0.21408,0.17791
0.656,0.042033,0.435,0.21408,0.17986
0.664,0.049853,0.43109,0.21505,0.18182
0.672,0.060606,0.4262,0.21505,0.1828
0.68,0.070381,0.42326,0.21505,0.18475
0.688,0.082111,0.42033,0.21603,0.18671
0.696,0.094819,0.41838,0.21603,0.18866
0.704,0.10753,0.41642,0.21701,0.19062
0.712,0.12121,0.41447,0.21896,0.19355
0.72,0.13392,0.41447,0.21994,0.19648
0.728,0.14663,0.41349,0.2219,0.19941
0.736,0.15934,0.41251,0.22287,0.20137
0.744,0.17107,0.41251,0.22483,0.20235
0.752,0.18475,0.41251,0.22678,0.20137
0.76,0.19746,0.41251,0.22776,0.20039
0.768,0.21114,0.41251,0.22972,0.19941
0.776,0.22581,0.41349,0.23069,0.20039
0.784,0.23754,0.41544,0.23167,0.20821
0.792,0.25024,0.4174,0.23363,0.22483
0.8,0.26197,0.41935,0.2346,0.2522
0.808,0.2737,0.42033,0.23656,0.28446
0.816,0.28446,0.42131,0.23851,0.32454
0.824,0.29521,0.42131,0.23949,0.37732
0.832,0.30596,0.42033,0.24047,0.43988
0.84,0.31672,0.41935,0.24145,0.50733
0.848,0.32845,0.41642,0.24242,0.57576
0.856,0.34018,0.41447,0.24438,0.64027
0.864,0.35191,0.41349,0.24536,0.6999
0.872,0.36364,0.41349,0.24731,0.75073
0.88,0.37439,0.41642,0.24829,0.79081
0.888,0.38514,0.42131,0.24927,0.82111
0.896,0.39394,0.42815,0.25024,0.84066
0.904,0.40371,0.43695,0.25122,0.84946
0.912,0.41447,0.45064,0.2522,0.84946
0.92,0.42522,0.46823,0.25415,0.84457
0.928,0.43793,0.4868,0.25513,0.83382
0.936,0.44966,0.50538,0.25611,0.81916
0.944,0.46139,0.52395,0.25806,0.80254
0.952,0.47312,0.54154,0.25904,0.78201
0.96,0.48387,0.55816,0.26002,0.76051
0.968,0.4956,0.57185,0.261,0.73607
0.976,0.50831,0.58162,0.26197,0.70968
0.984,0.52199,0.58749,0.26197,0.68231
0.992,0.53568,0.59042,0.26197,0.65396
1,0.55034,0.59042,0.261,0.62659
1.008,0.56696,0.5914,0.261,0.60215
1.016,0.5826,0.59042,0.26002,0.58065
1.024,0.59922,0.58944,0.25904,0.55816
1.032,0.61681,0.58651,0.25806,0.53568
1.04,0.63245,0.5826,0.25709,0.51417
1.048,0.64712,0.57771,0.25611,0.49365
1.056,0.66178,0.57087,0.25513,0.47312
1.064,0.67546,0.56305,0.25415,0.45161
1.072,0.69013,0.5523,0.25318,0.43109
1.08,0.70381,0.54057,0.2522,0.41251
1.088,0.71848,0.52884,0.2522,0.39492
1.096,0.73314,0.51711,0.25122,0.3783
1.104,0.74682,0.50733,0.25122,0.36559
1.112,0.76051,0.49756,0.25122,0.35679
1.12,0.77322,0.48778,0.25024,0.348
1.128,0.78592,0.47996,0.25024,0.34018
1.136,0.79863,0.4741,0.25024,0.33138
1.144,0.81232,0.47019,0.25024,0.3216
1.152,0.826,0.46823,0.25122,0.31281
1.16,0.83969,0.46725,0.2522,0.30303
1.168,0.85435,0.46628,0.25318,0.29326
1.176,0.86999,0.46432,0.25415,0.28348
1.184,0.88465,0.46041,0.25611,0.27468
1.192,0.90029,0.4565,0.25904,0.26588
1.2,0.91496,0.45259,0.261,0.25904
1.208,0.92864,0.4477,0.26393,0.25415
1.216,0.94135,0.44379,0.26588,0.25122
1.224,0.95503,0.43891,0.26882,0.24731
1.232,0.96774,0.43304,0.27077,0.24242
1.24,0.98143,0.43011,0.2737,0.23949
1.248,0.9912,0.42717,0.27664,0.23656
1.256,1,0.42522,0.28055,0.2346
1.264,1,0.42229,0.28348,0.23265
1.272,1,0.41935,0.28739,0.23069
1.28,1,0.4174,0.29032,0.22678
1.288,1,0.41544,0.29326,0.22287
1.296,1,0.41349,0.29619,0.21896
1.304,1,0.41251,0.29912,0.21505
1.312,1,0.41153,0.30303,0.2131
1.32,1,0.41153,0.30596,0.20919
1.328,1,0.41153,0.30987,0.20528
1.336,1,0.41251,0.31281,0.20235
1.344,1,0.41349,0.31672,0.19941
1.352,1,0.41349,0.31965,0.19746
1.36,1,0.41447,0.32258,0.19648
1.368,1,0.41544,0.32551,0.1955
1.376,1,0.41642,0.32845,0.1955
1.384,1,0.41642,0.33138,0.19648
1.392,1,0.4174,0.33431,0.19844
1.4,1,0.4174,0.33627,0.20235
1.408,1,0.41838,0.3392,0.20626
1.416,1,0.41838,0.34115,0.20919
1.424,1,0.41838,0.34409,0.21212
1.432,1,0.41935,0.34604,0.2131
1.44,1,0.42033,0.34897,0.21408
1.448,1,0.42033,0.35093,0.2131
1.456,1,0.42131,0.35386,0.21212
1.464,1,0.42033,0.35777,0.21017
1.472,1,0.41838,0.3607,0.20919
1.48,1,0.41642,0.36461,0.20821
1.488,1,0.41544,0.3695,0.20821
1.496,1,0.41349,0.37341,0.20821
1.504,1,0.41153,0.3783,0.20821
1.512,1,0.41056,0.38221,0.20919
1.52,1,0.41153,0.3871,0.20919
1.528,1,0.41447,0.39101,0.21017
1.536,1,0.41935,0.39589,0.21017
1.544,1,0.42717,0.40078,0.21017
1.552,1,0.43891,0.40469,0.21017
1.56,1,0.45357,0.40958,0.21114
1.568,1,0.47214,0.41544,0.21408
1.576,1,0.48974,0.42033,0.21994
1.584,1,0.50831,0.4262,0.23167
1.592,1,0.52395,0.43109,0.25024
1.6,1,0.53666,0.43597,0.27859
1.608,1,0.54839,0.43988,0.3089
1.616,1,0.55914,0.44379,0.34409
1.624,1,0.56794,0.44868,0.39296
1.632,0.98925,0.5738,0.45357,0.44966
1.64,0.97849,0.57771,0.45846,0.51222
1.648,0.95894,0.57967,0.46334,0.57576
1.656,0.93939,0.57967,0.46921,0.63636
1.664,0.91887,0.57869,0.4741,0.6911
1.672,0.89834,0.57674,0.47898,0.73803
1.68,0.87879,0.5738,0.48387,0.77517
1.688,0.85924,0.56989,0.48778,0.80254
1.696,0.84066,0.56403,0.49169,0.81916
1.704,0.82307,0.55523,0.4956,0.826
1.712,0.80352,0.54448,0.49951,0.82405
1.72,0.78495,0.53275,0.50244,0.8172
1.728,0.76442,0.52102,0.50538,0.80547
1.736,0.74487,0.50929,0.50831,0.78886
1.744,0.7263,0.49951,0.51124,0.76931
1.752,0.70772,0.49169,0.51417,0.7478
1.76,0.6911,0.48583,0.51711,0.72434
1.768,0.67351,0.47996,0.51906,0.69795
1.776,0.65689,0.4741,0.52199,0.67253
1.784,0.6393,0.46921,0.52297,0.64614
1.792,0.62366,0.4653,0.52493,0.62072
1.8,0.60704,0.46237,0.52688,0.59433
1.808,0.59238,0.46041,0.52786,0.56989
1.816,0.57771,0.45748,0.52884,0.54839
1.824,0.565,0.45455,0.53079,0.52493
1.832,0.5523,0.45064,0.53177,0.50342
1.84,0.54252,0.44575,0.53275,0.48192
1.848,0.53275,0.44086,0.53372,0.46237
1.856,0.52493,0.43695,0.53568,0.44379
1.864,0.51711,0.43206,0.53568,0.4262
1.872,0.51026,0.42815,0.53666,0.4086
1.88,0.5044,0.42522,0.53763,0.38905
1.888,0.49951,0.42326,0.53861,0.36755
1.896,0.4956,0.42131,0.53959,0.34702
1.904,0.49169,0.41935,0.54057,0.32942
1.912,0.48778,0.4174,0.54252,0.31378
1.92,0.48485,0.41544,0.54448,0.29619
1.928,0.48192,0.41349,0.54643,0.28055
1.936,0.47898,0.41251,0.54936,0.26784
1.944,0.47703,0.41056,0.55132,0.25611
1.952,0.47507,0.40958,0.55425,0.24145
1.96,0.47312,0.4086,0.55816,0.22776
1.968,0.47116,0.40762,0.56109,0.21799
1.976,0.47019,0.40762,0.56403,0.20723
1.984,0.46823,0.40762,0.56794,0.19844
1.992,0.46725,0.40762,0.57087,0.18866
2,0.4653,0.40762,0.57478,0.17986
2.008,0.46432,0.4086,0.57771,0.17302
2.016,0.46139,0.4086,0.58162,0.16716
2.024,0.45943,0.40762,0.58456,0.16129
2.032,0.4565,0.40762,0.58749,0.15543
2.04,0.45357,0.40762,0.59042,0.14956
2.048,0.44868,0.4086,0.59335,0.14467
2.056,0.44477,0.4086,0.59629,0.14174
2.064,0.43891,0.41056,0.6002,0.13978
2.072,0.43402,0.41153,0.60313,0.13978
2.08,0.42815,0.41153,0.60606,0.14076
2.088,0.42229,0.41251,0.60899,0.14174
2.096,0.41447,0.41251,0.61095,0.14272
2.104,0.40665,0.41056,0.61388,0.17595
2.112,0.39687,0.4086,0.61584,0.22385
2.12,0.3871,0.40665,0.61877,0.24829
2.128,0.37634,0.40469,0.62072,0.25904
2.136,0.36559,0.40469,0.62268,0.26491
2.144,0.35386,0.40567,0.62463,0.26686
2.152,0.34213,0.4086,0.62659,0.26588
2.16,0.33138,0.41447,0.62854,0.26588
2.168,0.3216,0.42424,0.62952,0.26588
2.176,0.31281,0.43793,0.63148,0.26588
2.184,0.30303,0.4565,0.63245,0.26686
2.192,0.29521,0.47507,0.63343,0.26686
2.2,0.28739,0.49267,0.63343,0.26882
2.208,0.28055,0.51222,0.63441,0.26979
2.216,0.2737,0.53079,0.63441,0.26979
2.224,0.26784,0.54936,0.63441,0.26979
2.232,0.26295,0.565,0.63539,0.26979
2.24,0.25904,0.57869,0.63539,0.26882
2.248,0.25513,0.58944,0.63636,0.26882
2.256,0.25318,0.59824,0.63734,0.26882
2.264,0.25122,0.60411,0.63734,0.26882
2.272,0.25024,0.60802,0.63734,0.26979
2.28,0.25024,0.60997,0.63832,0.27077
2.288,0.25122,0.60997,0.63832,0.27077
2.296,0.2522,0.60997,0.6393,0.27273
2.304,0.25318,0.60899,0.64027,0.2737
2.312,0.25513,0.60899,0.64223,0.27468
2.32,0.25611,0.60606,0.64418,0.2737
2.328,0.25806,0.60117,0.64516,0.27273
2.336,0.25904,0.59433,0.64614,0.27175
2.344,0.26002,0.58456,0.64712,0.27077
2.352,0.25904,0.57478,0.64712,0.27175
2.36,0.25904,0.56305,0.64809,0.2737
2.368,0.25709,0.55132,0.64907,0.2825
2.376,0.25611,0.53959,0.65005,0.30205
2.384,0.25415,0.52884,0.65103,0.3304
2.392,0.2522,0.52102,0.652,0.36657
2.4,0.24927,0.5132,0.65298,0.40274
2.408,0.24633,0.50635,0.65298,0.43988
2.416,0.24145,0.50244,0.65298,0.48387
2.424,0.23754,0.49853,0.65298,0.52981
2.432,0.23265,0.49658,0.65298,0.57576
2.44,0.22678,0.49462,0.65298,0.61681
2.448,0.22092,0.49169,0.65298,0.65298
2.456,0.21505,0.48876,0.65298,0.68231
2.464,0.20821,0.48583,0.65396,0.70479
2.472,0.20235,0.48094,0.65396,0.72043
2.48,0.19648,0.47605,0.65494,0.72923
2.488,0.19159,0.47214,0.65494,0.73216
2.496,0.18768,0.46823,0.65494,0.73021
2.504,0.1828,0.4653,0.65494,0.72336
2.512,0.17889,0.46237,0.65494,0.71457
2.52,0.17498,0.46041,0.65396,0.70283
2.528,0.17107,0.45846,0.65298,0.68817
2.536,0.16813,0.4565,0.652,0.67253
2.544,0.1652,0.45357,0.65103,0.65494
2.552,0.16325,0.44966,0.65005,0.63734
2.56,0.16129,0.44575,0.64809,0.61975
2.568,0.15934,0.44184,0.64712,0.60215
2.576,0.15836,0.43793,0.64614,0.58456
2.584,0.15738,0.43304,0.64321,0.56696
2.592,0.15543,0.42913,0.64125,0.55034
2.6,0.15445,0.42424,0.63832,0.53666
2.608,0.15347,0.41838,0.63539,0.52395
2.616,0.15249,0.41447,0.6305,0.51026
2.624,0.15152,0.41153,0.62659,0.49658
2.632,0.15054,0.40958,0.6217,0.48387
2.64,0.14956,0.4086,0.61681,0.47214
2.648,0.14858,0.40958,0.61193,0.46041
2.656,0.14761,0.40958,0.60802,0.44966
2.664,0.14663,0.40958,0.60313,0.43988
2.672,0.14467,0.41056,0.59922,0.43011
2.68,0.14272,0.41056,0.59433,0.42131
2.688,0.14076,0.41056,0.58944,0.41251
2.696,0.13783,0.41056,0.58456,0.40469
2.704,0.13392,0.41056,0.58065,0.39883
2.712,0.13099,0.41056,0.57576,0.39296
2.72,0.12708,0.41056,0.57185,0.38807
2.728,0.12317,0.41153,0.56696,0.38319
2.736,0.11828,0.41056,0.56305,0.37928
2.744,0.11241,0.41056,0.55914,0.37439
2.752,0.10557,0.41056,0.55425,0.36852
2.76,0.098729,0.40958,0.54936,0.36266
2.768,0.090909,0.40958,0.54448,0.35777
2.776,0.083089,0.40958,0.53959,0.35288
2.784,0.075269,0.40958,0.53372,0.34897
2.792,0.066471,0.41056,0.52786,0.34702
2.8,0.059629,0.41251,0.52199,0.34506
2.808,0.052786,0.41642,0.51711,0.34213
2.816,0.047898,0.42522,0.51222,0.3392
2.824,0.042033,0.43793,0.50733,0.33724
2.832,0.037146,0.45552,0.50244,0.33431
2.84,0.032258,0.47605,0.49756,0.33138
2.848,0.02737,0.49658,0.49267,0.32845
2.856,0.02346,0.51808,0.48778,0.32649
2.864,0.021505,0.53763,0.48289,0.32454
2.872,0.01955,0.55523,0.47801,0.32258
2.88,0.01955,0.56989,0.47312,0.32063
2.888,0.01955,0.58065,0.46921,0.31769
2.896,0.022483,0.58651,0.4653,0.31574
2.904,0.026393,0.59238,0.45943,0.31378
2.912,0.031281,0.59726,0.45455,0.31183
2.92,0.037146,0.59922,0.44868,0.3089
2.928,0.044966,0.6002,0.44379,0.30694
2.936,0.052786,0.6002,0.43695,0.30499
2.944,0.062561,0.59824,0.43011,0.30303
2.952,0.072336,0.59433,0.42326,0.30205
2.96,0.083089,0.58944,0.41544,0.3001
2.968,0.093842,0.58456,0.4086,0.29912
2.976,0.10459,0.57674,0.40176,0.29814
2.984,0.11535,0.56696,0.39492,0.29814
2.992,0.12708,0.55621,0.38807,0.3001
3,0.13881,0.54545,0.38123,0.30108
3.008,0.15249,0.53177,0.37439,0.30303
3.016,0.1652,0.51711,0.36755,0.30401
3.024,0.17693,0.50342,0.3607,0.30499
3.032,0.18866,0.49169,0.35484,0.30499
3.04,0.20039,0.48192,0.34897,0.30401
3.048,0.21114,0.47605,0.34311,0.30303
3.056,0.22287,0.47214,0.33822,0.30205
3.064,0.2346,0.47019,0.33333,0.30108
3.072,0.24731,0.46921,0.32747,0.3001
3.08,0.26002,0.46725,0.32258,0.30108
3.088,0.2737,0.46628,0.31769,0.30205
3.096,0.28739,0.4653,0.31281,0.30303
3.104,0.30108,0.46334,0.3089,0.30401
3.112,0.31476,0.46139,0.30499,0.30499
3.12,0.32747,0.45943,0.30108,0.30499
3.128,0.3392,0.45552,0.29717,0.30499
3.136,0.34995,0.45259,0.29423,0.30596
3.144,0.3607,0.44966,0.29228,0.30792
3.152,0.37243,0.44575,0.28935,0.31476
3.16,0.38416,0.44086,0.28739,0.32747
3.168,0.39687,0.435,0.28446,0.34897
3.176,0.40958,0.43011,0.2825,0.37928
3.184,0.42033,0.42522,0.27957,0.41838
3.192,0.43206,0.42131,0.27761,0.4565
3.2,0.44184,0.4174,0.27664,0.49658
3.208,0.45161,0.41447,0.27468,0.5435
3.216,0.46237,0.41251,0.27273,0.5914
3.224,0.4741,0.41056,0.27077,0.63734
3.232,0.4868,0.41056,0.26882,0.67937
3.24,0.49853,0.4086,0.26588,0.71457
3.248,0.51222,0.40665,0.26295,0.74291
3.256,0.5259,0.40567,0.25904,0.76442
3.264,0.53959,0.40469,0.25611,0.7781
3.272,0.55425,0.40371,0.25318,0.78495
3.28,0.56696,0.40274,0.24927,0.7869
3.288,0.57967,0.40176,0.24633,0.78299
3.296,0.59238,0.40176,0.2434,0.77615
3.304,0.60508,0.40078,0.24047,0.7654
3.312,0.61877,0.39883,0.23754,0.75367
3.32,0.63245,0.39687,0.23363,0.73803
3.328,0.64614,0.39394,0.23069,0.72043
3.336,0.6608,0.39198,0.22776,0.70088
3.344,0.67449,0.39003,0.22385,0.67937
3.352,0.68719,0.38905,0.22092,0.65787
3.36,0.69892,0.38807,0.21799,0.63636
3.368,0.71065,0.38807,0.21505,0.61486
3.376,0.72141,0.38807,0.2131,0.59531
3.384,0.73314,0.38807,0.21017,0.57576
3.392,0.74389,0.3871,0.20723,0.55914
3.4,0.75562,0.38514,0.20332,0.54545
3.408,0.76735,0.38319,0.20039,0.53079
3.416,0.7781,0.38123,0.19746,0.51515
3.424,0.78886,0.37928,0.19453,0.50049
3.432,0.80059,0.3783,0.19062,0.4868
3.44,0.81036,0.38025,0.18768,0.4741
3.448,0.82014,0.38221,0.18475,0.46237
3.456,0.82991,0.38807,0.18182,0.45064
3.464,0.83969,0.39687,0.17986,0.43988
3.472,0.85142,0.4086,0.17791,0.42815
3.48,0.86217,0.42522,0.17595,0.41642
3.488,0.87488,0.44086,0.174,0.40567
3.496,0.88759,0.45748,0.17204,0.39589
3.504,0.89932,0.47703,0.17009,0.3871
3.512,0.91202,0.4956,0.16911,0.3783
3.52,0.92278,0.5132,0.16716,0.3695
3.528,0.93451,0.52981,0.16618,0.36168
3.536,0.94721,0.5435,0.16422,0.35582
3.544,0.95992,0.55425,0.16422,0.35093
3.552,0.97458,0.56403,0.16325,0.348
3.56,0.98827,0.57087,0.16325,0.34506
3.568,0.99413,0.5738,0.16227,0.34213
3.576,1,0.57576,0.16227,0.3392
3.584,1,0.57674,0.16325,0.33724
3.592,1,0.57674,0.16325,0.33431
3.6,1,0.57674,0.16422,0.33333
3.608,1,0.5738,0.16422,0.3304
3.616,1,0.56989,0.1652,0.32747
3.624,1,0.56207,0.16618,0.32551
3.632,1,0.55132,0.16618,0.32356
3.64,1,0.53959,0.16716,0.3216
3.648,1,0.52688,0.16813,0.31867
3.656,1,0.51515,0.16911,0.31672
3.664,1,0.5044,0.17107,0.31378
3.672,1,0.49658,0.17204,0.31085
3.68,1,0.48974,0.174,0.30694
3.688,1,0.48485,0.17595,0.30401
3.696,1,0.47996,0.17791,0.30205
3.704,1,0.47703,0.17986,0.30108
3.712,1,0.47507,0.18084,0.3001
3.72,1,0.47312,0.1828,0.29912
3.728,1,0.47019,0.18377,0.29717
3.736,1,0.46921,0.18573,0.29619
3.744,1,0.46725,0.18671,0.29423
3.752,1,0.4653,0.18768,0.29326
3.76,1,0.46334,0.18964,0.29032
3.768,1,0.46041,0.19062,0.28739
3.776,1,0.45846,0.19159,0.28348
3.784,1,0.45552,0.19257,0.28055
3.792,1,0.45259,0.19355,0.27859
3.8,1,0.44868,0.19453,0.27859
3.808,1,0.44477,0.19453,0.27761
3.816,1,0.43988,0.19453,0.27664
3.824,1,0.43597,0.1955,0.27566
3.832,1,0.43206,0.1955,0.27566
3.84,1,0.42717,0.19648,0.27468
3.848,1,0.42229,0.19746,0.2737
3.856,1,0.4174,0.19941,0.27273
3.864,1,0.41447,0.20039,0.26979
3.872,1,0.41056,0.20137,0.26686
3.88,1,0.40762,0.20235,0.26295
3.888,1,0.40665,0.20332,0.26002
3.896,1,0.40567,0.20528,0.25904
3.904,1,0.40469,0.20626,0.26002
3.912,1,0.40469,0.20821,0.26197
3.92,0.99218,0.40371,0.21017,0.26784
3.928,0.98338,0.40176,0.21114,0.28055
3.936,0.96188,0.3998,0.2131,0.30205
3.944,0.94037,0.3998,0.21408,0.33138
3.952,0.91496,0.39883,0.21603,0.36852
3.96,0.89052,0.39883,0.21701,0.41447
3.968,0.86217,0.39883,0.21896,0.46432
3.976,0.8348,0.39883,0.22092,0.51711
3.984,0.80938,0.39883,0.2219,0.57087
3.992,0.78299,0.3998,0.22385,0.61486
4,0.75855,0.39785,0.22483,0.652
4.008,0.73412,0.39589,0.22678,0.68817
4.016,0.7087,0.39394,0.22776,0.71945
4.024,0.68328,0.39198,0.22874,0.74389
4.032,0.65689,0.38905,0.22972,0.76051
4.04,0.6305,0.38612,0.23069,0.77126
4.048,0.60508,0.38319,0.23069,0.77615
4.056,0.57869,0.38123,0.23167,0.77517
4.064,0.55425,0.37928,0.23265,0.77126
4.072,0.52981,0.38025,0.23265,0.76344
4.08,0.50831,0.38221,0.23363,0.75269
4.088,0.4868,0.38514,0.23363,0.73998
4.096,0.46823,0.39101,0.2346,0.7263
4.104,0.44868,0.40078,0.2346,0.71163
4.112,0.43304,0.41349,0.23558,0.69404
4.12,0.41642,0.43011,0.2346,0.67546
4.128,0.40274,0.44966,0.2346,0.65494
4.136,0.38807,0.47116,0.2346,0.63441
4.144,0.37732,0.49169,0.23363,0.60508
4.152,0.36657,0.51026,0.23265,0.57283
4.16,0.35777,0.52688,0.23167,0.54936
4.168,0.34995,0.54057,0.23069,0.53177
4.176,0.34311,0.55132,0.22972,0.51613
4.184,0.33627,0.55914,0.22776,0.50342
4.192,0.33138,0.565,0.22581,0.49169
4.2,0.32649,0.56891,0.22287,0.48289
4.208,0.32356,0.57283,0.22092,0.4741
4.216,0.32063,0.57478,0.21799,0.46725
4.224,0.31867,0.57576,0.21505,0.46041
4.232,0.31672,0.57576,0.21212,0.45455
4.24,0.31476,0.57478,0.21017,0.44868
4.248,0.31281,0.57087,0.20723,0.44184
4.256,0.31183,0.565,0.20528,0.435
4.264,0.31085,0.55816,0.2043,0.42913
4.272,0.3089,0.54839,0.20235,0.42229
4.28,0.30792,0.53763,0.20137,0.41642
4.288,0.30596,0.52884,0.19941,0.41153
4.296,0.30401,0.52004,0.19844,0.40665
4.304,0.30303,0.50929,0.19648,0.40176
4.312,0.30205,0.50049,0.1955,0.39589
4.32,0.3001,0.49365,0.1955,0.39101
4.328,0.29912,0.48778,0.19453,0.38612
4.336,0.29814,0.48289,0.19453,0.38123
4.344,0.29619,0.48094,0.19453,0.37537
4.352,0.29521,0.47996,0.19453,0.37048
4.36,0.29326,0.47898,0.19453,0.36461
4.368,0.29326,0.47898,0.19453,0.35973
4.376,0.29326,0.47703,0.19453,0.35484
4.384,0.29423,0.4741,0.19453,0.34995
4.392,0.29521,0.47116,0.1955,0.34604
4.4,0.29619,0.46628,0.1955,0.34213
4.408,0.29717,0.46139,0.19648,0.33822
4.416,0.29912,0.4565,0.19648,0.33431
4.424,0.30108,0.45161,0.19746,0.3304
4.432,0.30401,0.44673,0.19844,0.32649
4.44,0.30792,0.44184,0.19844,0.32356
4.448,0.31281,0.43695,0.19941,0.3216
4.456,0.31672,0.43304,0.20039,0.32063
4.464,0.3216,0.43011,0.20137,0.31867
4.472,0.32551,0.4262,0.20137,0.31769
4.48,0.32942,0.42326,0.20235,0.31672
4.488,0.33333,0.42131,0.20332,0.31476
4.496,0.33822,0.41935,0.2043,0.31281
4.504,0.34311,0.41642,0.2043,0.31183
4.512,0.348,0.41447,0.20528,0.30987
4.52,0.35288,0.41349,0.20528,0.30792
4.528,0.35679,0.41251,0.20626,0.30596
4.536,0.3607,0.41153,0.20626,0.30401
4.544,0.36364,0.41153,0.20626,0.30303
4.552,0.36657,0.41153,0.20626,0.30108
4.56,0.36755,0.41153,0.20626,0.3001
4.568,0.3695,0.41153,0.20626,0.29912
4.576,0.3695,0.41153,0.20626,0.29814
4.584,0.37048,0.41056,0.20626,0.29717
4.592,0.36852,0.40958,0.20626,0.29717
4.6,0.36657,0.40958,0.20723,0.29717
4.608,0.36266,0.40958,0.20919,0.29619
4.616,0.35875,0.40958,0.21114,0.29521
4.624,0.35484,0.40958,0.2131,0.29326
4.632,0.35093,0.41056,0.21505,0.2913
4.64,0.34604,0.41056,0.21701,0.28935
4.648,0.34115,0.41447,0.21799,0.28739
4.656,0.33333,0.41935,0.21994,0.28641
4.664,0.32649,0.42131,0.2219,0.28543
4.672,0.31672,0.42229,0.22483,0.28446
4.68,0.30694,0.42229,0.22776,0.2825
4.688,0.29521,0.42229,0.23069,0.28152
4.696,0.28446,0.42229,0.2346,0.28152
4.704,0.27175,0.42229,0.23851,0.28152
4.712,0.26002,0.42326,0.24242,0.28543
4.72,0.24927,0.42522,0.24731,0.29521
4.728,0.23851,0.43011,0.25122,0.31085
4.736,0.22874,0.44086,0.25513,0.33431
4.744,0.21896,0.45552,0.25806,0.36559
4.752,0.20919,0.4741,0.261,0.40274
4.76,0.20039,0.4956,0.26491,0.44477
4.768,0.19159,0.51808,0.26882,0.48778
4.776,0.1828,0.53959,0.27273,0.52981
4.784,0.17595,0.55816,0.27761,0.56989
4.792,0.16911,0.57283,0.28152,0.60215
4.8,0.16325,0.58553,0.28543,0.62659
4.808,0.15836,0.59629,0.28935,0.65103
4.816,0.15347,0.60508,0.29326,0.67058
4.824,0.14956,0.6129,0.29717,0.68524
4.832,0.14663,0.61779,0.30108,0.69599
4.84,0.14272,0.61975,0.30499,0.70088
4.848,0.13978,0.62072,0.3089,0.70088
4.856,0.13685,0.6217,0.31281,0.69697
4.864,0.13392,0.6217,0.31672,0.68817
4.872,0.13099,0.62072,0.31965,0.67742
4.88,0.12805,0.61779,0.32258,0.66569
4.888,0.12512,0.6129,0.32551,0.65298
4.896,0.12219,0.60704,0.32942,0.64027
4.904,0.11926,0.59922,0.33236,0.62561
4.912,0.11437,0.58944,0.33529,0.61095
4.92,0.11046,0.57967,0.33724,0.59629
4.928,0.10557,0.56794,0.34018,0.57967
4.936,0.099707,0.55523,0.34311,0.56403
4.944,0.095797,0.54252,0.34506,0.54839
4.952,0.090909,0.53079,0.34702,0.53275
4.96,0.086022,0.52102,0.34897,0.51808
4.968,0.082111,0.5132,0.34995,0.5044
4.976,0.076246,0.50733,0.35191,0.49169
4.984,0.070381,0.50244,0.35288,0.48094
4.992,0.062561,0.49951,0.35386,0.47214
5,0.054741,0.49853,0.35484,0.46432
5.008,0.047898,0.49658,0.35582,0.4565
5.016,0.040078,0.49462,0.35777,0.4477
5.024,0.033236,0.49365,0.35875,0.43988
5.032,0.026393,0.49169,0.36168,0.43109
5.04,0.021505,0.48778,0.36364,0.42326
5.048,0.01564,0.48387,0.36559,0.41544
5.056,0.01173,0.47996,0.36852,0.40665
5.064,0.0078201,0.47605,0.37048,0.39883
5.072,0.0058651,0.47214,0.37243,0.39198
5.08,0.0029325,0.46823,0.37537,0.38416
5.088,0.0029325,0.46432,0.3783,0.3783
5.096,0.001955,0.45943,0.38123,0.37341
5.104,0.0029325,0.45552,0.38514,0.36755
5.112,0.0039101,0.45161,0.38807,0.36168
5.12,0.0058651,0.4477,0.39198,0.35582
5.128,0.0087977,0.44379,0.39589,0.35093
5.136,0.012708,0.44086,0.3998,0.34604
5.144,0.017595,0.43597,0.40371,0.34213
5.152,0.024438,0.43109,0.40762,0.33822
5.16,0.031281,0.42717,0.41153,0.33529
5.168,0.040078,0.42424,0.41544,0.33236
5.176,0.049853,0.42131,0.42033,0.3304
5.184,0.061584,0.41838,0.42424,0.32747
5.192,0.073314,0.4174,0.42815,0.32649
5.2,0.084066,0.41447,0.43304,0.32454
5.208,0.095797,0.41251,0.43695,0.32258
5.216,0.10753,0.40958,0.44184,0.31965
5.224,0.11926,0.40762,0.44575,0.31769
5.232,0.13294,0.40665,0.45064,0.31476
5.24,0.14663,0.40665,0.45455,0.31281
5.248,0.16031,0.40665,0.45943,0.30987
5.256,0.17498,0.4086,0.46334,0.30694
5.264,0.18768,0.41056,0.46725,0.30499
5.272,0.20137,0.41251,0.47116,0.30205
5.28,0.2131,0.41447,0.47507,0.30108
5.288,0.22483,0.41544,0.47898,0.3001
5.296,0.23754,0.41642,0.48192,0.29912
5.304,0.25024,0.41642,0.48583,0.29912
5.312,0.26295,0.41544,0.48876,0.29814
5.32,0.27566,0.41447,0.49267,0.29717
5.328,0.28935,0.41349,0.49658,0.29619
5.336,0.30205,0.41153,0.50049,0.29521
5.344,0.31574,0.41056,0.5044,0.29326
5.352,0.32942,0.41056,0.50831,0.29032
5.36,0.34115,0.41153,0.51222,0.28837
5.368,0.35386,0.41447,0.51613,0.28543
5.376,0.36461,0.42033,0.51906,0.28348
5.384,0.37634,0.42815,0.52297,0.28055
5.392,0.38807,0.43891,0.5259,0.27957
5.4,0.40078,0.45357,0.52884,0.27859
5.408,0.41349,0.47214,0.53275,0.27566
5.416,0.42717,0.49169,0.53568,0.2737
5.424,0.43988,0.51026,0.53959,0.27273
5.432,0.45161,0.52884,0.5435,0.27273
5.44,0.46432,0.54448,0.54741,0.27273
5.448,0.47605,0.55816,0.55132,0.27273
5.456,0.48974,0.56891,0.55523,0.27273
5.464,0.50244,0.57674,0.55914,0.27175
5.472,0.51711,0.58358,0.56305,0.27077
5.48,0.53275,0.58847,0.56696,0.26979
5.488,0.54839,0.58944,0.57087,0.27077
5.496,0.56403,0.59042,0.57576,0.27273
5.504,0.57967,0.59042,0.57967,0.27859
5.512,0.59629,0.58944,0.58553,0.28935
5.52,0.60997,0.58651,0.59042,0.30694
5.528,0.62463,0.5826,0.59531,0.33138
5.536,0.63734,0.57674,0.6002,0.36266
5.544,0.65005,0.56989,0.60508,0.39883
5.552,0.66373,0.56012,0.60997,0.43988
5.56,0.67742,0.54839,0.61486,0.48094
5.568,0.69208,0.53666,0.61975,0.52199
5.576,0.70772,0.52395,0.62561,0.55914
5.584,0.72043,0.5132,0.6305,0.59238
5.592,0.73412,0.50538,0.63539,0.61779
5.6,0.74682,0.49853,0.64125,0.63636
5.608,0.76051,0.49267,0.64614,0.65396
5.616,0.77419,0.4868,0.65103,0.66764
5.624,0.78788,0.48289,0.65591,0.67644
5.632,0.80254,0.48094,0.65982,0.68035
5.64,0.81818,0.47996,0.66471,0.68133
5.648,0.83382,0.47898,0.6696,0.67742
5.656,0.84946,0.47801,0.67351,0.6696
5.664,0.86608,0.4741,0.6784,0.65885
5.672,0.88172,0.47019,0.68231,0.64614
5.68,0.89638,0.46628,0.68719,0.63245
5.688,0.91105,0.46237,0.69013,0.61877
5.696,0.92473,0.45748,0.69404,0.60508
5.704,0.93744,0.45259,0.69697,0.59042
5.712,0.9521,0.44868,0.6999,0.57576
5.72,0.96676,0.44477,0.70283,0.56109
5.728,0.98143,0.44086,0.70479,0.54643
5.736,0.99707,0.43597,0.70577,0.53275
5.744,0.99804,0.43109,0.70772,0.52004
5.752,1,0.42717,0.7087,0.50831
5.76,1,0.42424,0.70968,0.49658
5.768,1,0.42131,0.70968,0.4868
5.776,1,0.41838,0.71065,0.47703
5.784,1,0.41642,0.71065,0.46725
5.792,1,0.41447,0.71065,0.46041
5.8,1,0.41349,0.71065,0.45259
5.808,1,0.41251,0.71065,0.44575
5.816,1,0.41251,0.71065,0.43988
5.824,1,0.41349,0.71065,0.43304
5.832,1,0.41349,0.71163,0.42717
5.84,1,0.41447,0.71163,0.42131
5.848,1,0.41642,0.71261,0.41544
5.856,1,0.41838,0.71261,0.41056
5.864,1,0.42033,0.71261,0.40469
5.872,1,0.42229,0.71261,0.3998
5.88,1,0.42229,0.71261,0.39589
5.888,1,0.42326,0.71261,0.39198
5.896,1,0.42326,0.71359,0.38807
5.904,1,0.42326,0.71457,0.38319
5.912,1,0.42326,0.71457,0.3783
5.92,1,0.42424,0.71554,0.37243
5.928,1,0.42326,0.71652,0.36559
5.936,1,0.42229,0.7175,0.35973
5.944,1,0.42033,0.7175,0.35484
5.952,1,0.4174,0.71848,0.34995
5.96,1,0.41544,0.71848,0.34604
5.968,1,0.41251,0.71848,0.34115
5.976,1,0.40958,0.71848,0.33724
5.984,1,0.4086,0.71848,0.33333
5.992,1,0.40958,0.71848,0.3304
6,1,0.41056,0.7175,0.32747
6.008,1,0.41349,0.7175,0.32551
6.016,1,0.41935,0.71848,0.32356
6.024,1,0.42717,0.71848,0.3216
6.032,1,0.43695,0.71848,0.32063
6.04,1,0.45064,0.71848,0.31867
6.048,1,0.46725,0.71848,0.31769
6.056,1,0.48583,0.71848,0.31574
6.064,1,0.50342,0.71848,0.31378
6.072,1,0.52004,0.71848,0.31183
6.08,0.98338,0.53372,0.71848,0.31085
6.088,0.96676,0.5435,0.7175,0.3089
6.096,0.94624,0.55327,0.7175,0.30792
6.104,0.92669,0.56207,0.71652,0.30596
6.112,0.9042,0.56989,0.71652,0.30401
6.12,0.88172,0.57576,0.71554,0.30108
6.128,0.85826,0.57967,0.71457,0.29912
6.136,0.8348,0.5826,0.71359,0.29814
6.144,0.81036,0.58162,0.71163,0.29717
6.152,0.7869,0.58065,0.71065,0.29521
6.16,0.76442,0.57771,0.7087,0.29423
6.168,0.74194,0.57087,0.70674,0.29326
6.176,0.72239,0.56207,0.70577,0.29228
6.184,0.70186,0.5523,0.70381,0.29032
6.192,0.68133,0.54252,0.70186,0.3001
6.2,0.66178,0.53079,0.6999,0.31378
6.208,0.64223,0.51906,0.69697,0.31965
6.216,0.62268,0.50831,0.69404,0.3216
6.224,0.60508,0.49756,0.6911,0.3216
6.232,0.58749,0.48974,0.68817,0.32063
6.24,0.57283,0.48289,0.68622,0.31965
6.248,0.55718,0.47703,0.68328,0.31965
6.256,0.5435,0.47214,0.68133,0.31965
6.264,0.52981,0.46921,0.67742,0.31965
6.272,0.51711,0.46725,0.67449,0.31965
6.28,0.50342,0.46628,0.67058,0.32063
6.288,0.49267,0.46628,0.66764,0.32356
6.296,0.48192,0.46432,0.66276,0.32845
6.304,0.47312,0.46237,0.65885,0.33724
6.312,0.46432,0.45846,0.65494,0.35288
6.32,0.4565,0.45455,0.65005,0.37341
6.328,0.44966,0.44966,0.64516,0.40078
6.336,0.44282,0.44477,0.64027,0.43304
6.344,0.43695,0.43988,0.63539,0.46823
6.352,0.43206,0.435,0.6305,0.5044
6.36,0.42717,0.43109,0.62463,0.54057
6.368,0.42326,0.42717,0.61877,0.57478
6.376,0.41935,0.42522,0.6129,0.60508
6.384,0.41642,0.42326,0.60704,0.62757
6.392,0.41349,0.42229,0.6002,0.64418
6.4,0.41056,0.42033,0.59433,0.65885
6.408,0.4086,0.4174,0.58847,0.6696
6.416,0.40762,0.41544,0.58162,0.67742
6.424,0.40567,0.41447,0.57478,0.68133
6.432,0.40567,0.41447,0.56794,0.68231
6.44,0.40469,0.41447,0.56012,0.67937
6.448,0.40469,0.41447,0.5523,0.67449
6.456,0.40567,0.41447,0.5435,0.66667
6.464,0.40567,0.41544,0.53568,0.65591
6.472,0.40665,0.41642,0.52688,0.64418
6.48,0.40665,0.41838,0.51808,0.63148
6.488,0.40665,0.41935,0.51026,0.61877
6.496,0.40665,0.42033,0.50147,0.60704
6.504,0.40665,0.42131,0.49365,0.59433
6.512,0.40567,0.42326,0.4868,0.58065
6.52,0.40469,0.42326,0.47801,0.56696
6.528,0.40274,0.42424,0.46921,0.55327
6.536,0.40078,0.42424,0.45943,0.54057
6.544,0.39785,0.42424,0.44966,0.52884
6.552,0.39492,0.42424,0.44086,0.51711
6.56,0.39101,0.42424,0.43206,0.50635
6.568,0.38807,0.42326,0.42229,0.49658
6.576,0.38221,0.42229,0.41349,0.48876
6.584,0.37732,0.42033,0.40469,0.48094
6.592,0.3695,0.41935,0.39589,0.47507
6.6,0.36266,0.4174,0.38612,0.47019
6.608,0.35386,0.41544,0.37634,0.4653
6.616,0.34604,0.41544,0.36755,0.45943
6.624,0.33627,0.4174,0.35777,0.45455
6.632,0.32747,0.42229,0.348,0.44966
6.64,0.31965,0.43109,0.3392,0.44379
6.648,0.31085,0.44477,0.3304,0.43891
6.656,0.30303,0.46334,0.3216,0.435
6.664,0.29619,0.48485,0.31378,0.43011
6.672,0.28935,0.50733,0.30596,0.42522
6.68,0.28348,0.52688,0.29912,0.42033
6.688,0.27761,0.54448,0.29228,0.41642
6.696,0.27273,0.55914,0.28543,0.41349
6.704,0.26882,0.56989,0.27957,0.40958
6.712,0.26588,0.58162,0.2737,0.40567
6.72,0.26295,0.5914,0.26784,0.40078
6.728,0.261,0.59922,0.26295,0.39687
6.736,0.26002,0.60508,0.25904,0.39198
6.744,0.25904,0.60802,0.25415,0.38807
6.752,0.25904,0.60997,0.25024,0.38319
6.76,0.25904,0.61095,0.24731,0.37928
6.768,0.25806,0.61193,0.2434,0.37537
6.776,0.25806,0.60997,0.24047,0.37243
6.784,0.25806,0.60802,0.23754,0.3695
6.792,0.25806,0.60606,0.2346,0.36852
6.8,0.25709,0.60215,0.23167,0.36657
6.808,0.25611,0.59726,0.22874,0.36364
6.816,0.25513,0.59042,0.22678,0.36168
6.824,0.25415,0.58065,0.22385,0.35875
6.832,0.25024,0.56891,0.2219,0.35582
6.84,0.24731,0.55718,0.21896,0.35288
6.848,0.2434,0.54448,0.21701,0.35191
6.856,0.23949,0.53079,0.21505,0.34995
6.864,0.2346,0.51906,0.2131,0.348
6.872,0.23069,0.50929,0.21017,0.34604
6.88,0.22581,0.50147,0.20821,0.34506
6.888,0.22092,0.49462,0.20528,0.34311
6.896,0.21505,0.48876,0.20235,0.34213
6.904,0.21017,0.48485,0.20039,0.34213
6.912,0.20235,0.48094,0.19746,0.34115
6.92,0.1955,0.47801,0.1955,0.34018
6.928,0.18866,0.47507,0.19355,0.3392
6.936,0.18182,0.47214,0.19159,0.33822
6.944,0.17498,0.46921,0.18964,0.33724
6.952,0.16716,0.46725,0.18768,0.33529
6.96,0.16129,0.46334,0.18573,0.33333
6.968,0.1564,0.46041,0.18475,0.33138
6.976,0.15152,0.45748,0.18377,0.32942
6.984,0.14761,0.45455,0.1828,0.32747
6.992,0.1437,0.45259,0.1828,0.32649
7,0.14076,0.44966,0.1828,0.32649
7.008,0.13783,0.44673,0.1828,0.32551
7.016,0.1349,0.44184,0.1828,0.32551
7.024,0.13392,0.43695,0.1828,0.32551
7.032,0.13196,0.43304,0.1828,0.32551
7.04,0.13099,0.42815,0.18377,0.32551
7.048,0.13099,0.42424,0.18377,0.32551
7.056,0.13099,0.42033,0.18475,0.32649
7.064,0.13196,0.41642,0.18475,0.3304
7.072,0.13294,0.41349,0.18573,0.33724
7.08,0.13392,0.41153,0.18671,0.34897
7.088,0.1349,0.40958,0.18671,0.36364
7.096,0.13587,0.4086,0.18866,0.38221
7.104,0.13587,0.40762,0.18964,0.40665
7.112,0.13685,0.40762,0.19159,0.435
7.12,0.13685,0.40567,0.19355,0.46725
7.128,0.13685,0.40469,0.19453,0.49951
7.136,0.13685,0.40469,0.19648,0.53177
7.144,0.13685,0.40371,0.19746,0.56109
7.152,0.13587,0.40469,0.19844,0.58847
7.16,0.1349,0.40567,0.20039,0.61095
7.168,0.13294,0.40762,0.20137,0.6305
7.176,0.13099,0.4086,0.20235,0.64516
7.184,0.12805,0.40762,0.20332,0.65494
7.192,0.1261,0.40762,0.2043,0.6608
7.2,0.12414,0.40567,0.20528,0.66373
7.208,0.12121,0.40371,0.20626,0.66471
7.216,0.1173,0.40274,0.20723,0.66373
7.224,0.11339,0.40078,0.20723,0.65982
7.232,0.10753,0.40078,0.20723,0.65396
7.24,0.10264,0.3998,0.20723,0.64712
7.248,0.095797,0.3998,0.20723,0.63832
7.256,0.089932,0.40078,0.20723,0.62854
7.264,0.082111,0.40371,0.20723,0.61779
7.272,0.075269,0.4086,0.20723,0.60606
7.28,0.069404,0.41642,0.20723,0.59335
7.288,0.063539,0.4262,0.20723,0.58065
7.296,0.059629,0.44086,0.20723,0.56891
7.304,0.055718,0.45943,0.20626,0.55718
7.312,0.051808,0.47996,0.20528,0.54545
7.32,0.048876,0.50049,0.20332,0.5347
7.328,0.045943,0.52004,0.20137,0.52493
7.336,0.043011,0.53861,0.19844,0.51613
7.344,0.041056,0.55425,0.19648,0.50831
7.352,0.039101,0.56598,0.19355,0.50049
7.36,0.038123,0.5738,0.19062,0.49267
7.368,0.037146,0.58065,0.18866,0.48583
7.376,0.036168,0.58358,0.18671,0.47996
7.384,0.036168,0.58456,0.18377,0.4741
7.392,0.036168,0.58553,0.18182,0.46823
7.4,0.036168,0.58553,0.17889,0.46237
7.408,0.037146,0.58456,0.17595,0.45552
7.416,0.038123,0.58358,0.174,0.44966
7.424,0.040078,0.58162,0.17204,0.44282
7.432,0.042033,0.57869,0.17009,0.43597
7.44,0.044966,0.5738,0.16813,0.42913
7.448,0.047898,0.56891,0.16716,0.42229
7.456,0.051808,0.56012,0.16618,0.41544
7.464,0.055718,0.55034,0.1652,0.4086
7.472,0.060606,0.53666,0.16422,0.40176
7.48,0.065494,0.52297,0.16422,0.39492
7.488,0.071359,0.51026,0.16422,0.39003
7.496,0.077224,0.49756,0.16422,0.38514
7.504,0.083089,0.4868,0.1652,0.38025
7.512,0.089932,0.47801,0.16618,0.37537
7.52,0.096774,0.47116,0.16716,0.3695
7.528,0.10264,0.46628,0.16813,0.36461
7.536,0.11144,0.46334,0.17009,0.35875
7.544,0.12023,0.46041,0.17204,0.35386
7.552,0.13001,0.4565,0.17302,0.34897
7.56,0.14076,0.45357,0.17498,0.34409
7.568,0.15249,0.44966,0.17595,0.3392
7.576,0.1652,0.4477,0.17791,0.33529
7.584,0.17889,0.44575,0.17986,0.33236
7.592,0.19257,0.44184,0.18182,0.3304
7.6,0.20528,0.43793,0.18377,0.32845
7.608,0.21896,0.43402,0.18573,0.32649
7.616,0.23069,0.43109,0.18768,0.32454
7.624,0.2434,0.42717,0.18964,0.32258
7.632,0.25806,0.42424,0.19062,0.3216
7.64,0.27175,0.42229,0.19159,0.31965
7.648,0.28641,0.41935,0.19257,0.31769
7.656,0.30205,0.41544,0.19257,0.31476
7.664,0.31574,0.41251,0.19355,0.31281
7.672,0.32942,0.41056,0.19355,0.30987
7.68,0.34311,0.4086,0.19453,0.30694
7.688,0.35582,0.40665,0.19453,0.30499
7.696,0.37048,0.40469,0.1955,0.30401
7.704,0.38514,0.40176,0.1955,0.30205
7.712,0.40078,0.3998,0.1955,0.3001
7.72,0.41642,0.39687,0.1955,0.29814
7.728,0.43304,0.39394,0.1955,0.29619
7.736,0.44868,0.39198,0.1955,0.29423
7.744,0.46628,0.39003,0.1955,0.29228
7.752,0.48289,0.39003,0.1955,0.2913
7.76,0.49756,0.38905,0.1955,0.29032
7.768,0.5132,0.39101,0.19648,0.28935
7.776,0.52688,0.39296,0.19746,0.28837
7.784,0.54154,0.39394,0.19844,0.28837
7.792,0.55425,0.39296,0.20039,0.28837
7.8,0.56794,0.39296,0.20235,0.28837
7.808,0.58065,0.39198,0.2043,0.28739
7.816,0.59335,0.39003,0.20626,0.28446
7.824,0.60411,0.38905,0.20821,0.28152
7.832,0.61486,0.38807,0.20919,0.27859
7.84,0.62463,0.3871,0.21114,0.27566
7.848,0.63343,0.38612,0.2131,0.27566
7.856,0.64223,0.38514,0.21408,0.27859
7.864,0.65103,0.38319,0.21603,0.28739
7.872,0.65885,0.38123,0.21799,0.30108
7.88,0.66764,0.37928,0.21994,0.31965
7.888,0.67644,0.3783,0.2219,0.34115
7.896,0.68524,0.37732,0.22385,0.36364
7.904,0.69404,0.3783,0.22581,0.39198
7.912,0.70381,0.38123,0.22776,0.42424
7.92,0.71359,0.38807,0.22972,0.4565
7.928,0.72239,0.39785,0.23167,0.48876
7.936,0.73216,0.41251,0.23363,0.51808
7.944,0.74194,0.43011,0.2346,0.54448
7.952,0.75269,0.45064,0.23558,0.56598
7.96,0.76442,0.47116,0.23656,0.58456
7.968,0.77713,0.49071,0.23851,0.59726
7.976,0.78983,0.50733,0.23851,0.60704
7.984,0.80254,0.52004,0.23949,0.61193
7.992,0.81525,0.53372,0.24047,0.6129
8,0.82796,0.54643,0.24145,0.6129
8.008,0.84066,0.55718,0.24145,0.60997
8.016,0.85435,0.565,0.24242,0.60606
8.024,0.86804,0.56989,0.24242,0.6002
8.032,0.8827,0.57185,0.24242,0.59238
8.04,0.89736,0.57185,0.24242,0.58358
8.048,0.913,0.56989,0.2434,0.5738
8.056,0.92864,0.56794,0.24242,0.56207
8.064,0.94526,0.565,0.24145,0.55034
8.072,0.9609,0.56109,0.23949,0.53763
8.08,0.97556,0.55621,0.23851,0.52493
8.088,0.98925,0.55034,0.23656,0.51417
8.096,0.99511,0.5435,0.2346,0.50342
8.104,1,0.5347,0.23265,0.49267
8.112,1,0.52395,0.23167,0.48192
8.12,1,0.51222,0.22874,0.47116
8.128,1,0.49951,0.22678,0.46139
8.136,1,0.48876,0.22385,0.45259
8.144,1,0.47898,0.22092,0.44575
8.152,1,0.47116,0.21896,0.43891
8.16,1,0.4653,0.21701,0.43304
8.168,1,0.46041,0.21603,0.42815
8.176,1,0.45846,0.21408,0.42229
8.184,1,0.45748,0.21212,0.41838
8.192,1,0.4565,0.21017,0.41349
8.2,1,0.4565,0.20821,0.40762
8.208,1,0.4565,0.20626,0.40176
8.216,1,0.4565,0.2043,0.39492
8.224,1,0.45455,0.20235,0.38905
8.232,1,0.45259,0.20137,0.38221
8.24,1,0.44966,0.20039,0.38807
8.248,1,0.44673,0.19941,0.40078
8.256,1,0.44184,0.19941,0.40371
8.264,1,0.43695,0.19941,0.40274
8.272,1,0.43206,0.19941,0.3998
8.28,1,0.42717,0.20039,0.39687
8.288,1,0.42326,0.20137,0.39394
8.296,1,0.41935,0.20332,0.39003
8.304,1,0.41544,0.20528,0.3871
8.312,1,0.41153,0.20821,0.38416
8.32,1,0.4086,0.21017,0.38123
8.328,1,0.40762,0.21212,0.3783
8.336,1,0.40665,0.21505,0.37537
8.344,1,0.40665,0.21701,0.37243
8.352,1,0.40762,0.21994,0.36852
8.36,1,0.40762,0.2219,0.36559
8.368,1,0.40762,0.22483,0.36168
8.376,1,0.4086,0.22776,0.35875
8.384,1,0.40762,0.23069,0.35777
8.392,1,0.40762,0.2346,0.35679
8.4,1,0.40665,0.23754,0.35582
8.408,1,0.40567,0.24047,0.35582
8.416,1,0.40567,0.24438,0.35582
8.424,1,0.40469,0.24633,0.35484
8.432,1,0.40469,0.24927,0.35484
8.44,1,0.40567,0.2522,0.35288
8.448,1,0.40567,0.25415,0.35191
8.456,1,0.40371,0.25611,0.34995
8.464,1,0.40176,0.25806,0.348
8.472,1,0.3998,0.26002,0.34604
8.48,1,0.39785,0.26197,0.34506
8.488,1,0.39589,0.26393,0.34409
8.496,0.97458,0.39394,0.26588,0.34213
8.504,0.94819,0.39101,0.26686,0.34018
8.512,0.91496,0.39003,0.26882,0.33822
8.52,0.88172,0.38905,0.26979,0.33724
8.528,0.84751,0.38905,0.27077,0.33627
8.536,0.81232,0.39003,0.27273,0.33529
8.544,0.7781,0.39198,0.2737,0.33431
8.552,0.74389,0.39589,0.27566,0.33333
8.56,0.71359,0.40274,0.27664,0.33236
8.568,0.68328,0.41251,0.27859,0.33236
8.576,0.65689,0.42326,0.28055,0.33138
8.584,0.6305,0.43597,0.2825,0.33138
8.592,0.60704,0.45259,0.28446,0.33236
8.6,0.58358,0.47116,0.28739,0.33236
8.608,0.56207,0.48876,0.28935,0.33236
8.616,0.54057,0.50733,0.29228,0.33236
8.624,0.52297,0.52493,0.29521,0.33236
8.632,0.50538,0.53959,0.29814,0.33236
8.64,0.48974,0.55132,0.30108,0.33236
8.648,0.47507,0.56012,0.30401,0.33333
8.656,0.46334,0.565,0.30694,0.33822
8.664,0.45064,0.56598,0.30987,0.34702
8.672,0.44086,0.56598,0.31378,0.35973
8.68,0.43109,0.56403,0.31672,0.37439
8.688,0.42326,0.56012,0.32063,0.39198
8.696,0.41544,0.55523,0.32551,0.41447
8.704,0.4086,0.55034,0.32942,0.43891
8.712,0.40176,0.5435,0.33431,0.46432
8.72,0.39589,0.5347,0.3392,0.48876
8.728,0.39003,0.52395,0.34409,0.51222
8.736,0.38416,0.51222,0.348,0.53275
8.744,0.37928,0.50147,0.35191,0.54936
8.752,0.37341,0.49267,0.35582,0.56305
8.76,0.36755,0.48583,0.3607,0.5738
8.768,0.36168,0.47996,0.36559,0.58162
8.776,0.35582,0.47507,0.37048,0.58651
8.784,0.34995,0.47214,0.37537,0.58944
8.792,0.34506,0.47019,0.38025,0.58944
8.8,0.34018,0.47019,0.38416,0.58847
8.808,0.33529,0.46921,0.38807,0.58553
8.816,0.3304,0.46725,0.39296,0.58065
8.824,0.32551,0.4653,0.39687,0.57576
8.832,0.3216,0.46237,0.40078,0.56891
8.84,0.31672,0.45943,0.40469,0.56207
8.848,0.31281,0.45552,0.4086,0.55425
8.856,0.30987,0.45161,0.41349,0.54643
8.864,0.30792,0.44868,0.4174,0.53763
8.872,0.30596,0.44575,0.42131,0.52786
8.88,0.30499,0.44282,0.42522,0.52004
8.888,0.30401,0.44086,0.42913,0.51222
8.896,0.30401,0.43891,0.43206,0.5044
8.904,0.30401,0.43695,0.43402,0.4956
8.912,0.30499,0.43402,0.43695,0.48778
8.92,0.30596,0.43206,0.43793,0.48094
8.928,0.30792,0.42913,0.43988,0.4741
8.936,0.30987,0.42717,0.44184,0.46823
8.944,0.31281,0.42424,0.44282,0.46334
8.952,0.31476,0.42229,0.44379,0.45846
8.96,0.31867,0.42131,0.44477,0.45455
8.968,0.3216,0.41935,0.44477,0.45064
8.976,0.32551,0.41838,0.44575,0.44575
8.984,0.32942,0.4174,0.44673,0.44282
8.992,0.33431,0.41544,0.4477,0.43891
9,0.3392,0.41349,0.44868,0.43402
9.008,0.34409,0.41153,0.44966,0.43011
9.016,0.348,0.41056,0.45161,0.42522
9.024,0.35288,0.41056,0.45357,0.42033
9.032,0.35777,0.41056,0.45552,0.41642
9.04,0.3607,0.41153,0.45846,0.41153
9.048,0.36461,0.41153,0.46041,0.40762
9.056,0.36755,0.41153,0.46334,0.40371
9.064,0.3695,0.41056,0.4653,0.3998
9.072,0.37048,0.41056,0.46823,0.39589
9.08,0.37146,0.41056,0.47019,0.39296
9.088,0.37048,0.41251,0.47312,0.39003
9.096,0.37048,0.41447,0.47605,0.3871
9.104,0.36852,0.41642,0.47996,0.38416
9.112,0.36657,0.41838,0.48192,0.38123
9.12,0.36461,0.41838,0.48485,0.3783
9.128,0.36168,0.41838,0.48778,0.37634
9.136,0.35582,0.41838,0.49071,0.37439
9.144,0.35093,0.41838,0.49462,0.37341
9.152,0.34311,0.41935,0.49853,0.37146
9.16,0.33529,0.41935,0.50244,0.37048
9.168,0.32649,0.42033,0.50635,0.36852
9.176,0.31769,0.42229,0.51124,0.36657
9.184,0.30792,0.4262,0.51515,0.36461
9.192,0.29912,0.43597,0.52004,0.36266
9.2,0.28935,0.45064,0.52395,0.3607
9.208,0.28055,0.46921,0.52786,0.35875
9.216,0.27273,0.48876,0.53177,0.35777
9.224,0.26393,0.51026,0.5347,0.35679
9.232,0.25611,0.53177,0.53861,0.35582
9.24,0.24829,0.5523,0.54154,0.35484
9.248,0.24047,0.56891,0.54448,0.35288
9.256,0.23363,0.5826,0.54643,0.35191
9.264,0.22776,0.59238,0.54936,0.34995
9.272,0.2219,0.59824,0.55132,0.348
9.28,0.21799,0.60215,0.55327,0.34702
9.288,0.21408,0.60411,0.55425,0.34702
9.296,0.20919,0.60508,0.55621,0.34604
9.304,0.2043,0.60606,0.55718,0.34506
9.312,0.19941,0.60606,0.55816,0.34311
9.32,0.1955,0.60606,0.56012,0.34213
9.328,0.18964,0.60411,0.56109,0.34213
9.336,0.18475,0.6002,0.56305,0.34115
9.344,0.17986,0.59629,0.56403,0.34018
9.352,0.17498,0.59042,0.56598,0.3392
9.36,0.17009,0.58358,0.56794,0.33822
9.368,0.1652,0.57478,0.56891,0.33724
9.376,0.16129,0.56696,0.56989,0.33724
9.384,0.1564,0.55816,0.57087,0.33627
9.392,0.15054,0.54741,0.57185,0.33627
9.4,0.14565,0.53666,0.57283,0.33627
9.408,0.13881,0.52688,0.57478,0.33529
9.416,0.13294,0.51808,0.57674,0.33529
9.424,0.12708,0.51026,0.57869,0.33529
9.432,0.12121,0.50342,0.58065,0.33627
9.44,0.11535,0.49756,0.5826,0.33822
9.448,0.10948,0.49462,0.58456,0.34409
9.456,0.10362,0.49169,0.58651,0.35191
9.464,0.097752,0.48778,0.58847,0.36364
9.472,0.091887,0.48485,0.59042,0.37928
9.48,0.086022,0.48192,0.59238,0.39589
9.488,0.080156,0.47801,0.59433,0.41349
9.496,0.074291,0.4741,0.59629,0.435
9.504,0.069404,0.47019,0.59922,0.45846
9.512,0.064516,0.46628,0.60117,0.48289
9.52,0.061584,0.46334,0.60411,0.50635
9.528,0.057674,0.45943,0.60606,0.52786
9.536,0.054741,0.45552,0.60802,0.54643
9.544,0.052786,0.45161,0.60997,0.56109
9.552,0.051808,0.4477,0.61095,0.57283
9.56,0.049853,0.44379,0.6129,0.58162
9.568,0.049853,0.43988,0.61388,0.58749
9.576,0.049853,0.43695,0.61486,0.59042
9.584,0.050831,0.43304,0.61681,0.59042
9.592,0.050831,0.42913,0.61779,0.58944
9.6,0.051808,0.42522,0.61877,0.58651
9.608,0.053763,0.42229,0.61877,0.5826
9.616,0.053763,0.42033,0.61975,0.57771
9.624,0.054741,0.41935,0.61975,0.57185
9.632,0.054741,0.4174,0.61975,0.56598
9.64,0.054741,0.41642,0.61975,0.55914
9.648,0.053763,0.41544,0.61975,0.55132
9.656,0.052786,0.41544,0.61877,0.5435
9.664,0.050831,0.41544,0.61681,0.53568
9.672,0.049853,0.41544,0.61486,0.52786
9.68,0.047898,0.4174,0.6129,0.52004
9.688,0.045943,0.41838,0.61095,0.5132
9.696,0.043011,0.41838,0.60899,0.50635
9.704,0.040078,0.41838,0.60704,0.49951
9.712,0.036168,0.4174,0.60508,0.49267
9.72,0.032258,0.4174,0.60215,0.4868
9.728,0.028348,0.4174,0.59824,0.47996
9.736,0.02346,0.41838,0.59433,0.47507
9.744,0.020528,0.41838,0.59042,0.47019
9.752,0.016618,0.4174,0.58651,0.46628
9.76,0.014663,0.41642,0.58358,0.46237
9.768,0.012708,0.41447,0.58065,0.45846
9.776,0.01173,0.41349,0.57771,0.45552
9.784,0.010753,0.41251,0.5738,0.45259
9.792,0.0097752,0.41153,0.57087,0.44966
9.8,0.0097752,0.41251,0.56696,0.44673
9.808,0.012708,0.41447,0.56305,0.44282
9.816,0.01564,0.4174,0.55914,0.43891
9.824,0.020528,0.42229,0.55523,0.43597
9.832,0.025415,0.43109,0.5523,0.43206
9.84,0.032258,0.44379,0.54839,0.42717
9.848,0.039101,0.46041,0.54545,0.42326
9.856,0.047898,0.47801,0.54154,0.41838
9.864,0.055718,0.49658,0.53861,0.41349
9.872,0.068426,0.51124,0.5347,0.40958
9.88,0.080156,0.52493,0.53177,0.40665
9.888,0.094819,0.53763,0.52884,0.40469
9.896,0.11046,0.55034,0.52493,0.40274
9.904,0.12512,0.56012,0.52199,0.40078
9.912,0.14076,0.56696,0.51906,0.39785
9.92,0.1564,0.57185,0.51613,0.39492
9.928,0.17204,0.57576,0.51222,0.39198
9.936,0.19062,0.57771,0.50929,0.39003
9.944,0.21017,0.57869,0.50538,0.3871
9.952,0.23167,0.57869,0.50244,0.38416
9.96,0.25318,0.57869,0.49853,0.38221
9.968,0.27566,0.57674,0.49462,0.38025
9.976,0.29912,0.5738,0.48974,0.3783
9.984,0.3216,0.56989,0.48583,0.37732
9.992,0.34409,0.56403,0.48094,0.37634
10,0.36364,0.55718,0.47605,0.37537
10.008,0.38416,0.54839,0.47214,0.37439
10.016,0.40176,0.53763,0.46823,0.37341
10.024,0.41935,0.5259,0.46334,0.37243
10.032,0.43597,0.51417,0.45943,0.37146
10.04,0.45259,0.50342,0.45455,0.37048
10.048,0.46921,0.49462,0.45064,0.3695
10.056,0.48485,0.48778,0.44477,0.36755
10.064,0.49756,0.48289,0.43988,0.36657
10.072,0.51124,0.47996,0.43402,0.36461
10.08,0.52297,0.47703,0.42913,0.36461
10.088,0.5347,0.47507,0.42326,0.36364
10.096,0.54545,0.47312,0.41838,0.36364
10.104,0.55718,0.47116,0.41251,0.36364
10.112,0.56794,0.46725,0.40762,0.36266
10.12,0.57967,0.46334,0.40176,0.36168
10.128,0.5914,0.45846,0.39687,0.35973
10.136,0.60313,0.45357,0.39101,0.35875
10.144,0.61584,0.44868,0.38514,0.35875
10.152,0.62854,0.44379,0.37928,0.35777
10.16,0.6393,0.43891,0.37243,0.35679
10.168,0.65005,0.43402,0.36755,0.35582
10.176,0.6608,0.43011,0.36168,0.35582
10.184,0.67155,0.4262,0.35679,0.35582
10.192,0.68426,0.42229,0.35191,0.35582
10.2,0.69697,0.41935,0.34702,0.35582
10.208,0.71065,0.4174,0.34213,0.35582
10.216,0.72532,0.41544,0.33724,0.35679
10.224,0.73803,0.41349,0.33236,0.35777
10.232,0.75171,0.41153,0.32845,0.3607
10.24,0.76442,0.4086,0.32454,0.36559
10.248,0.77713,0.40665,0.31965,0.37341
10.256,0.79277,0.40371,0.31574,0.38416
10.264,0.80841,0.40176,0.31281,0.3998
10.272,0.826,0.3998,0.3089,0.41935
10.28,0.8436,0.39883,0.30596,0.43891
10.288,0.86217,0.39883,0.30205,0.47019
10.296,0.88074,0.3998,0.29912,0.51124
10.304,0.89932,0.40176,0.29619,0.54741
10.312,0.91887,0.40371,0.29326,0.57967
10.32,0.93548,0.40469,0.29032,0.60704
10.328,0.9521,0.40371,0.28739,0.6305
10.336,0.96676,0.40371,0.28543,0.64907
10.344,0.98143,0.40274,0.28348,0.66471
10.352,0.99022,0.40274,0.28152,0.67546
10.36,1,0.40176,0.27859,0.68328
10.368,1,0.40078,0.27664,0.68719
10.376,1,0.40078,0.27273,0.68719
10.384,1,0.40176,0.26979,0.68524
10.392,1,0.40078,0.26686,0.68231
10.4,1,0.3998,0.26393,0.67742
10.408,1,0.39785,0.261,0.67058
10.416,1,0.39589,0.25806,0.66276
10.424,1,0.39394,0.25513,0.65396
10.432,1,0.39198,0.2522,0.64516
10.44,1,0.39198,0.24829,0.63539
10.448,1,0.39296,0.24536,0.62463
10.456,1,0.39589,0.24145,0.61486
10.464,1,0.40274,0.23754,0.60411
10.472,1,0.41056,0.2346,0.59433
10.48,1,0.42033,0.23069,0.58553
10.488,1,0.43304,0.22678,0.57674
10.496,1,0.44966,0.22385,0.56891
10.504,1,0.46823,0.22092,0.56109
10.512,1,0.4868,0.21799,0.55327
10.52,1,0.5044,0.21505,0.54643
10.528,1,0.52004,0.21212,0.53959
10.536,1,0.53372,0.20919,0.53275
10.544,1,0.54545,0.20528,0.5259
10.552,1,0.55425,0.20235,0.52004
10.56,1,0.56207,0.20039,0.51417
10.568,1,0.56696,0.19746,0.50929
10.576,1,0.56989,0.1955,0.50635
10.584,1,0.57087,0.19257,0.50244
10.592,1,0.57185,0.19062,0.49951
10.6,1,0.57185,0.18866,0.4956
10.608,1,0.56989,0.18671,0.49071
10.616,1,0.56696,0.18475,0.48583
10.624,1,0.56109,0.18182,0.47996
10.632,1,0.55425,0.17986,0.4741
10.64,1,0.5435,0.17791,0.46823
10.648,1,0.53177,0.17595,0.46237
10.656,1,0.52004,0.174,0.45748
10.664,1,0.50733,0.17302,0.45259
10.672,1,0.49853,0.17204,0.44868
10.68,1,0.49267,0.17204,0.44575
10.688,1,0.4868,0.17204,0.44184
10.696,1,0.48192,0.17204,0.43793
10.704,1,0.47801,0.17204,0.43402
10.712,1,0.47605,0.17204,0.43109
10.72,1,0.47507,0.17204,0.42717
10.728,1,0.47312,0.17302,0.42424
10.736,1,0.47019,0.17302,0.42131
10.744,1,0.46823,0.174,0.41838
10.752,1,0.46432,0.17498,0.41544
10.76,1,0.46041,0.17498,0.41349
10.768,1,0.4565,0.17595,0.41056
10.776,1,0.45259,0.17693,0.4086
10.784,0.99413,0.44868,0.17791,0.40665
10.792,0.98729,0.44379,0.17889,0.40567
10.8,0.96579,0.43988,0.17986,0.40371
10.808,0.9433,0.435,0.18084,0.40176
10.816,0.92278,0.43011,0.18182,0.3998
10.824,0.90323,0.4262,0.1828,0.39785
10.832,0.88172,0.42229,0.18377,0.39589
10.84,0.86119,0.41935,0.18475,0.39394
10.848,0.84066,0.41642,0.18573,0.39198
10.856,0.81916,0.41447,0.18671,0.39003
10.864,0.80059,0.41153,0.18768,0.38905
10.872,0.78201,0.40958,0.18866,0.38807
10.88,0.76442,0.4086,0.18964,0.38807
10.888,0.7478,0.40665,0.19062,0.38807
10.896,0.73118,0.40371,0.19159,0.3871
10.904,0.71554,0.40274,0.19159,0.38514
10.912,0.6999,0.40176,0.19159,0.38319
10.92,0.68426,0.40078,0.19159,0.38221
10.928,0.66862,0.40078,0.19159,0.38025
10.936,0.65396,0.40078,0.19159,0.3783
10.944,0.63832,0.40176,0.19257,0.37732
10.952,0.62366,0.40078,0.19257,0.37732
10.96,0.60997,0.40078,0.19257,0.37634
10.968,0.59629,0.40078,0.19355,0.37634
10.976,0.5826,0.3998,0.19355,0.37634
10.984,0.56989,0.39883,0.19453,0.37634
10.992,0.55621,0.39785,0.1955,0.37537
11,0.54154,0.39785,0.19648,0.37537
11.008,0.52688,0.39687,0.19746,0.37439
11.016,0.51124,0.39687,0.19844,0.37537
11.024,0.49658,0.39687,0.20039,0.3783
11.032,0.48192,0.39589,0.20137,0.38514
11.04,0.46823,0.39492,0.20332,0.39687
11.048,0.45455,0.39394,0.2043,0.41251
11.056,0.44086,0.39296,0.20528,0.43304
11.064,0.4262,0.39198,0.20723,0.45748
11.072,0.41153,0.39296,0.20919,0.48485
11.08,0.39687,0.39589,0.21017,0.51026
11.088,0.38319,0.40078,0.21212,0.5347
11.096,0.37048,0.40958,0.21408,0.56109
11.104,0.35777,0.42229,0.21603,0.58847
11.112,0.34604,0.43891,0.21701,0.61388
11.12,0.33627,0.45943,0.21799,0.63636
11.128,0.32649,0.48192,0.21896,0.65494
11.136,0.31867,0.50342,0.21994,0.6696
11.144,0.31085,0.52493,0.22092,0.68133
11.152,0.30694,0.5435,0.2219,0.68817
11.16,0.30205,0.55914,0.22287,0.69208
11.168,0.3001,0.56891,0.22385,0.69306
11.176,0.29814,0.57576,0.22483,0.6911
11.184,0.29814,0.58065,0.22483,0.68719
11.192,0.29717,0.58358,0.22581,0.68328
11.2,0.29717,0.58553,0.22581,0.67644
11.208,0.29717,0.58651,0.22678,0.6696
11.216,0.29912,0.58553,0.22678,0.6608
11.224,0.30205,0.58358,0.22678,0.652
11.232,0.30499,0.58162,0.22678,0.64223
11.24,0.3089,0.57869,0.22678,0.63245
11.248,0.31281,0.57576,0.22581,0.62268
11.256,0.31574,0.57185,0.22483,0.61193
11.264,0.31769,0.56598,0.22483,0.60215
11.272,0.32063,0.56012,0.22385,0.5914
11.28,0.3216,0.55327,0.22287,0.58358
11.288,0.32356,0.5435,0.22092,0.57576
11.296,0.32454,0.53177,0.21994,0.56794
11.304,0.32551,0.52004,0.21896,0.56109
11.312,0.32551,0.51026,0.21701,0.55425
11.32,0.32551,0.50244,0.21505,0.54741
11.328,0.32356,0.4956,0.2131,0.54057
11.336,0.32258,0.49169,0.21114,0.5347
11.344,0.32063,0.48974,0.20821,0.52786
11.352,0.31965,0.4868,0.20626,0.52199
11.36,0.31769,0.48485,0.2043,0.51613
11.368,0.31574,0.48387,0.20235,0.51026
11.376,0.31281,0.48192,0.20039,0.50538
11.384,0.31085,0.48094,0.19844,0.50147
11.392,0.30694,0.47801,0.19648,0.49658
11.4,0.30401,0.4741,0.19453,0.49169
11.408,0.30205,0.47116,0.19355,0.4868
11.416,0.29912,0.46725,0.19257,0.48192
11.424,0.29717,0.46334,0.19159,0.47605
11.432,0.29521,0.46041,0.19062,0.47019
11.44,0.29423,0.4565,0.18964,0.46432
11.448,0.29228,0.45161,0.18964,0.45943
11.456,0.2913,0.4477,0.18964,0.45455
11.464,0.29032,0.44282,0.18964,0.45064
11.472,0.28935,0.43793,0.18964,0.44673
11.48,0.28837,0.43402,0.18964,0.44379
11.488,0.28739,0.43011,0.19062,0.44184
11.496,0.28641,0.42522,0.19062,0.43793
11.504,0.28641,0.42326,0.19159,0.435
11.512,0.28543,0.42131,0.19159,0.43206
11.52,0.28446,0.42131,0.19257,0.42815
11.528,0.28446,0.42033,0.19257,0.42424
11.536,0.28348,0.42033,0.19355,0.42131
11.544,0.2825,0.41935,0.19453,0.41838
11.552,0.28055,0.41838,0.1955,0.41544
11.56,0.27957,0.41838,0.19746,0.41251
11.568,0.27566,0.41838,0.19941,0.41056
11.576,0.27273,0.41838,0.20137,0.40958
11.584,0.26784,0.41838,0.20332,0.4086
11.592,0.26295,0.41935,0.20528,0.40762
11.6,0.25806,0.41935,0.20723,0.40567
11.608,0.25318,0.41935,0.20919,0.40371
11.616,0.24731,0.41935,0.21114,0.40176
11.624,0.24145,0.41935,0.21212,0.39883
11.632,0.23363,0.41838,0.2131,0.39687
11.64,0.22581,0.4174,0.21408,0.39492
11.648,0.21799,0.41642,0.21505,0.39296
11.656,0.20919,0.41447,0.21505,0.39296
11.664,0.20137,0.41349,0.21505,0.39198
11.672,0.19257,0.41153,0.21505,0.39101
11.68,0.18475,0.41153,0.21603,0.39101
11.688,0.17791,0.41056,0.21603,0.39101
11.696,0.16813,0.41153,0.21603,0.38905
11.704,0.15934,0.41349,0.21603,0.38807
11.712,0.14956,0.4174,0.21603,0.38612
11.72,0.13978,0.42424,0.21505,0.38514
11.728,0.13001,0.43402,0.21505,0.38319
11.736,0.12023,0.4477,0.21505,0.38123
11.744,0.11144,0.46628,0.21505,0.37928
11.752,0.10362,0.48778,0.21603,0.3783
11.76,0.096774,0.50929,0.21701,0.3783
11.768,0.089932,0.52786,0.21799,0.37732
11.776,0.085044,0.54252,0.21799,0.37732
11.784,0.081134,0.55718,0.21896,0.37732
11.792,0.078201,0.56989,0.21994,0.37732
11.8,0.075269,0.57967,0.22287,0.37732
11.808,0.073314,0.58847,0.22483,0.3783
11.816,0.072336,0.59531,0.22776,0.38123
11.824,0.071359,0.6002,0.23167,0.3871
11.832,0.071359,0.60215,0.2346,0.39785
11.84,0.071359,0.60313,0.23754,0.41447
11.848,0.071359,0.60411,0.24047,0.435
11.856,0.071359,0.60411,0.2434,0.45943
11.864,0.071359,0.60313,0.24731,0.48876
11.872,0.070381,0.60117,0.25024,0.51515
11.88,0.070381,0.59824,0.25415,0.53959
11.888,0.069404,0.59335,0.25806,0.56696
11.896,0.068426,0.58651,0.26197,0.59335
11.904,0.067449,0.57674,0.26588,0.61877
11.912,0.066471,0.56598,0.26979,0.6393
11.92,0.064516,0.55523,0.27468,0.65689
11.928,0.063539,0.54252,0.27761,0.67058
11.936,0.062561,0.53079,0.28152,0.68035
11.944,0.060606,0.52004,0.28543,0.68622
11.952,0.058651,0.51026,0.28837,0.69013
11.96,0.056696,0.50342,0.29228,0.69013
11.968,0.054741,0.49951,0.29619,0.68817
11.976,0.052786,0.4956,0.3001,0.68426
11.984,0.049853,0.49267,0.30401,0.6784
11.992,0.047898,0.48974,0.30694,0.67155
12,0.045943,0.4868,0.31085,0.66276
12.008,0.043988,0.48387,0.31378,0.65396
12.016,0.042033,0.48094,0.31769,0.64418
12.024,0.041056,0.47898,0.32063,0.63441
12.032,0.039101,0.47507,0.32356,0.62366
12.04,0.037146,0.47214,0.32649,0.6129
12.048,0.036168,0.46921,0.32942,0.60313
12.056,0.035191,0.4653,0.33138,0.59238
12.064,0.035191,0.46139,0.33333,0.5826
12.072,0.035191,0.45846,0.33529,0.57478
12.08,0.035191,0.45552,0.33627,0.56696
12.088,0.036168,0.45161,0.33724,0.55914
12.096,0.037146,0.44868,0.3392,0.5523
12.104,0.038123,0.44477,0.34018,0.54545
12.112,0.040078,0.43988,0.34115,0.54057
12.12,0.043011,0.435,0.34213,0.53568
12.128,0.045943,0.43011,0.34311,0.53079
12.136,0.048876,0.4262,0.34409,0.5259
12.144,0.052786,0.42229,0.34506,0.52102
12.152,0.056696,0.41935,0.34604,0.51613
12.16,0.061584,0.4174,0.34702,0.51026
12.168,0.066471,0.4174,0.348,0.5044
12.176,0.072336,0.41838,0.34897,0.49853
12.184,0.079179,0.41935,0.35093,0.49365
12.192,0.086999,0.41935,0.35288,0.48974
12.2,0.094819,0.42033,0.35484,0.48387
12.208,0.10362,0.41935,0.35679,0.47898
12.216,0.11241,0.41838,0.35973,0.47312
12.224,0.12219,0.41642,0.36266,0.46725
12.232,0.13196,0.41349,0.36559,0.46139
12.24,0.14174,0.41153,0.3695,0.45552
12.248,0.15152,0.40958,0.37243,0.45064
12.256,0.16031,0.40665,0.37537,0.44575
12.264,0.16911,0.40469,0.3783,0.44086
12.272,0.17889,0.40371,0.38123,0.43793
12.28,0.18768,0.40371,0.38514,0.435
12.288,0.19746,0.40274,0.38905,0.43206
12.296,0.20626,0.40274,0.39296,0.42913
12.304,0.21505,0.40274,0.39785,0.4262
12.312,0.22483,0.40274,0.40274,0.42424
12.32,0.23265,0.40176,0.40762,0.42131
12.328,0.24145,0.40078,0.41153,0.41838
12.336,0.25122,0.40176,0.41642,0.40371
12.344,0.26197,0.40274,0.42131,0.38416
12.352,0.27273,0.40665,0.42522,0.37341
12.36,0.28348,0.41349,0.43011,0.36755
12.368,0.29619,0.42131,0.435,0.36266
12.376,0.3089,0.43206,0.43988,0.3607
12.384,0.3216,0.44673,0.44477,0.35875
12.392,0.33529,0.4653,0.45064,0.35777
12.4,0.34897,0.48583,0.45552,0.35582
12.408,0.36168,0.50538,0.46041,0.35386
12.416,0.37537,0.52493,0.4653,0.35191
12.424,0.38807,0.54154,0.46921,0.34897
12.432,0.40274,0.55523,0.47312,0.34702
12.44,0.41838,0.56598,0.47703,0.34409
12.448,0.43402,0.57283,0.48192,0.34115
12.456,0.45064,0.57576,0.48583,0.3392
12.464,0.46628,0.57674,0.48974,0.33724
12.472,0.48192,0.57674,0.49267,0.33529
12.48,0.49658,0.57674,0.4956,0.33431
12.488,0.51124,0.57674,0.49853,0.33333
12.496,0.52688,0.57674,0.50049,0.33236
12.504,0.54252,0.57674,0.50342,0.33236
12.512,0.55914,0.57478,0.50635,0.33138
12.52,0.57576,0.57185,0.50929,0.33138
12.528,0.5914,0.565,0.51222,0.33138
12.536,0.60802,0.55523,0.51515,0.33138
12.544,0.62463,0.5435,0.51906,0.3304
12.552,0.64027,0.53079,0.52199,0.32942
12.56,0.65494,0.51711,0.5259,0.32845
12.568,0.66862,0.50635,0.52884,0.32649
12.576,0.68133,0.49658,0.53177,0.32649
12.584,0.69404,0.4868,0.5347,0.32649
12.592,0.70674,0.47801,0.53763,0.32649
12.6,0.71945,0.47214,0.54154,0.32649
12.608,0.73216,0.46823,0.54448,0.32942
12.616,0.74487,0.46628,0.54741,0.33431
12.624,0.7566,0.46334,0.55132,0.34311
12.632,0.76833,0.46139,0.55523,0.35777
12.64,0.78006,0.45943,0.55816,0.37732
12.648,0.79179,0.4565,0.56207,0.40274
12.656,0.80352,0.45357,0.56598,0.43206
12.664,0.81623,0.44966,0.56989,0.46432
12.672,0.82991,0.44575,0.5738,0.49169
12.68,0.84262,0.44184,0.57771,0.51808
12.688,0.8563,0.43793,0.58162,0.54448
12.696,0.86999,0.43402,0.58651,0.57087
12.704,0.88465,0.43011,0.5914,0.59433
12.712,0.89834,0.4262,0.59629,0.61388
12.72,0.91105,0.42326,0.60117,0.6305
12.728,0.92473,0.41935,0.60508,0.64321
12.736,0.93646,0.4174,0.60899,0.65103
12.744,0.94917,0.41447,0.6129,0.65591
12.752,0.96188,0.41153,0.61681,0.65689
12.76,0.97556,0.40958,0.62072,0.65591
12.768,0.98827,0.40762,0.62463,0.652
12.776,1,0.40567,0.62854,0.64712
12.784,1,0.40469,0.63245,0.64027
12.792,1,0.40371,0.63539,0.63245
12.8,1,0.40371,0.63832,0.62463
12.808,1,0.40274,0.64125,0.61486
12.816,1,0.40274,0.64418,0.60411
12.824,1,0.40274,0.64614,0.59238
12.832,1,0.40274,0.64809,0.58162
12.84,1,0.40176,0.65005,0.56989
12.848,1,0.40078,0.65103,0.55914
12.856,1,0.3998,0.65103,0.54839
12.864,1,0.39883,0.65103,0.53861
12.872,1,0.39883,0.65103,0.52981
12.88,1,0.40078,0.65103,0.52297
12.888,1,0.40274,0.65005,0.51613
12.896,1,0.40469,0.65005,0.51026
12.904,1,0.40567,0.64907,0.5044
12.912,1,0.40665,0.64809,0.49951
12.92,1,0.40665,0.64712,0.4956
12.928,1,0.40567,0.64516,0.49169
12.936,1,0.40371,0.64418,0.4868
12.944,1,0.40176,0.64223,0.48289
12.952,1,0.39883,0.64027,0.47801
12.96,1,0.39687,0.6393,0.47214
12.968,1,0.39589,0.63734,0.46628
12.976,1,0.39589,0.63636,0.46041
12.984,1,0.39785,0.63539,0.45455
12.992,1,0.40078,0.63539,0.44868
13,1,0.40567,0.63539,0.44379
13.008,1,0.41447,0.63539,0.43891
13.016,1,0.42717,0.63441,0.43402
13.024,1,0.44379,0.63441,0.42913
13.032,1,0.46432,0.63441,0.42424
13.04,1,0.4868,0.63343,0.42033
13.048,1,0.51026,0.63343,0.41447
13.056,1,0.53372,0.63245,0.40958
13.064,1,0.55327,0.63245,0.40567
13.072,1,0.56891,0.63148,0.40176
13.08,1,0.5826,0.63148,0.39883
13.088,1,0.59335,0.63148,0.39589
13.096,1,0.6002,0.63148,0.39296
13.104,1,0.60508,0.63245,0.39003
13.112,1,0.60704,0.63245,0.3871
13.12,1,0.60802,0.63245,0.38514
13.128,1,0.60606,0.63245,0.38221
13.136,1,0.60215,0.63245,0.38025
13.144,1,0.59726,0.63245,0.3783
13.152,1,0.59042,0.63343,0.37732
13.16,1,0.5826,0.63343,0.37537
13.168,1,0.57478,0.63441,0.37439
13.176,1,0.56598,0.63441,0.37243
13.184,1,0.55523,0.63441,0.37146
13.192,1,0.54448,0.63441,0.3695
13.2,1,0.53372,0.63441,0.36755
13.208,1,0.52493,0.63441,0.36461
13.216,1,0.51711,0.63441,0.36266
13.224,1,0.50929,0.63441,0.3607
13.232,1,0.5044,0.63441,0.35875
13.24,1,0.50244,0.63343,0.35679
13.248,1,0.50147,0.63343,0.35484
13.256,1,0.50049,0.63245,0.35288
13.264,1,0.50049,0.63245,0.35093
13.272,1,0.49951,0.63148,0.34995
13.28,1,0.49951,0.63148,0.34897
13.288,1,0.49951,0.6305,0.348
13.296,1,0.49951,0.62952,0.34702
13.304,1,0.49951,0.62854,0.34604
13.312,1,0.49951,0.62659,0.34506
13.32,1,0.49951,0.62561,0.34506
13.328,1,0.49951,0.62366,0.34409
13.336,1,0.49951,0.6217,0.34409
13.344,1,0.49951,0.61975,0.34311
13.352,1,0.49951,0.61779,0.34115
13.36,1,0.49951,0.61486,0.34018
13.368,1,0.49951,0.6129,0.33822
13.376,1,0.49756,0.61095,0.33724
13.384,1,0.49462,0.60997,0.33724
13.392,1,0.49071,0.60802,0.33627
13.4,1,0.4868,0.60606,0.33822
13.408,1,0.48192,0.60411,0.34213
13.416,1,0.47801,0.60215,0.35093
13.424,1,0.4741,0.59922,0.36461
13.432,1,0.47116,0.59726,0.38416
13.44,1,0.46725,0.59433,0.4086
13.448,1,0.46334,0.59238,0.43793
13.456,1,0.45846,0.58944,0.46921
13.464,1,0.45552,0.58553,0.50244
13.472,1,0.45357,0.5826,0.53079
13.48,1,0.45259,0.57869,0.55621
13.488,1,0.45161,0.57478,0.58358
13.496,1,0.45064,0.56989,0.60704
13.504,1,0.44966,0.565,0.62659
13.512,1,0.44673,0.56012,0.64223
13.52,1,0.44282,0.55425,0.65298
13.528,1,0.43988,0.54936,0.6608
13.536,1,0.435,0.54448,0.66569
13.544,1,0.43109,0.53959,0.66764
13.552,1,0.4262,0.5347,0.66667
13.56,1,0.42326,0.52884,0.66373
13.568,1,0.42131,0.52297,0.65885
13.576,1,0.41935,0.51613,0.65298
13.584,1,0.4174,0.51026,0.64614
13.592,1,0.41447,0.50342,0.63734
13.6,1,0.41251,0.49756,0.62757
13.608,1,0.40958,0.49267,0.61681
13.616,1,0.4086,0.4868,0.60606
13.624,1,0.4086,0.48094,0.59433
13.632,0.9697,0.41153,0.4741,0.58358
13.64,0.93939,0.41544,0.46628,0.57283
13.648,0.90323,0.42229,0.45943,0.56207
13.656,0.86706,0.43304,0.45064,0.55327
13.664,0.82893,0.44379,0.44184,0.54448
13.672,0.79081,0.4565,0.43304,0.53666
13.68,0.75562,0.47312,0.42326,0.53079
13.688,0.72043,0.48974,0.41544,0.52493
13.696,0.68817,0.5044,0.40665,0.51906
13.704,0.65494,0.51808,0.39883,0.5132
13.712,0.62268,0.52981,0.39101,0.50831
13.72,0.59042,0.53861,0.38221,0.50244
13.728,0.55816,0.54545,0.37439,0.49756
13.736,0.52688,0.55034,0.36559,0.49267
13.744,0.49853,0.5523,0.35679,0.48876
13.752,0.47116,0.5523,0.34897,0.48289
13.76,0.44673,0.55034,0.34115,0.47801
13.768,0.42229,0.54839,0.33431,0.47312
13.776,0.39883,0.5435,0.32649,0.46823
13.784,0.37537,0.53763,0.31965,0.46237
13.792,0.35386,0.52981,0.31183,0.45552
13.8,0.33138,0.51906,0.30499,0.45064
13.808,0.31183,0.50733,0.29717,0.44477
13.816,0.29228,0.49462,0.29032,0.43988
13.824,0.27468,0.48094,0.28446,0.435
13.832,0.25709,0.46725,0.27761,0.43011
13.84,0.2434,0.45552,0.27175,0.42522
13.848,0.22874,0.44477,0.26686,0.42131
13.856,0.21799,0.435,0.26197,0.4174
13.864,0.20626,0.42815,0.25904,0.41349
13.872,0.19648,0.42424,0.25513,0.41056
13.88,0.18573,0.42033,0.25122,0.40762
13.888,0.17693,0.4174,0.24829,0.40371
13.896,0.16813,0.41544,0.24536,0.40078
13.904,0.16129,0.41251,0.24242,0.39687
13.912,0.15347,0.41056,0.24047,0.39296
13.92,0.14761,0.40958,0.23851,0.39101
13.928,0.14174,0.4086,0.23656,0.38905
13.936,0.13587,0.4086,0.23558,0.3871
13.944,0.13099,0.4086,0.23363,0.38514
13.952,0.1261,0.4086,0.23167,0.38319
13.96,0.12121,0.40762,0.22972,0.38025
13.968,0.11632,0.40665,0.22874,0.37928
13.976,0.11144,0.40567,0.22678,0.37732
13.984,0.10753,0.40371,0.22483,0.37537
13.992,0.10264,0.40176,0.22287,0.37341
14,0.099707,0.3998,0.2219,0.37243
14.008,0.097752,0.39883,0.21994,0.37048
14.016,0.095797,0.39687,0.21799,0.3695
14.024,0.093842,0.39394,0.21603,0.36852
14.032,0.092864,0.39198,0.21505,0.36657
14.04,0.090909,0.38905,0.21212,0.36461
14.048,0.088954,0.3871,0.21017,0.36266
14.056,0.087977,0.38416,0.20821,0.35973
14.064,0.086999,0.38319,0.20528,0.35777
14.072,0.086022,0.38319,0.20332,0.35679
14.08,0.086022,0.38416,0.20137,0.35582
14.088,0.086022,0.38416,0.20039,0.35582
14.096,0.086022,0.38514,0.19941,0.35582
14.104,0.085044,0.38514,0.19844,0.35582
14.112,0.084066,0.38612,0.19648,0.35582
14.12,0.084066,0.38612,0.1955,0.35386
14.128,0.082111,0.3871,0.19453,0.35288
14.136,0.080156,0.3871,0.19355,0.35093
14.144,0.078201,0.38807,0.19355,0.34897
14.152,0.076246,0.38807,0.19257,0.34702
14.16,0.073314,0.38807,0.19257,0.34604
14.168,0.071359,0.38905,0.19257,0.34604
14.176,0.067449,0.39003,0.19257,0.34702
14.184,0.064516,0.39003,0.19257,0.348
14.192,0.059629,0.39003,0.19257,0.35191
14.2,0.054741,0.39003,0.19257,0.35875
14.208,0.048876,0.38807,0.19355,0.37048
14.216,0.043011,0.38612,0.19355,0.3871
14.224,0.037146,0.38416,0.19453,0.40958
14.232,0.031281,0.38416,0.19453,0.43597
14.24,0.024438,0.38514,0.1955,0.46725
14.248,0.018573,0.38807,0.19648,0.49951
14.256,0.01173,0.39296,0.19648,0.53177
14.264,0.0048876,0.3998,0.19746,0.56207
14.272,0.001955,0.40958,0.19844,0.58749
14.28,0,0.42424,0.19941,0.60802
14.288,0,0.44282,0.19941,0.62757
14.296,0,0.4653,0.20039,0.64418
14.304,0,0.48778,0.20137,0.65885
14.312,0,0.51124,0.20137,0.66862
14.32,0,0.53372,0.20235,0.67644
14.328,0,0.55327,0.20235,0.67937
14.336,0,0.56989,0.20235,0.68035
14.344,0,0.5826,0.20235,0.6784
14.352,0,0.59238,0.20235,0.67449
14.36,0,0.59824,0.20137,0.66862
14.368,0,0.60117,0.20137,0.66178
14.376,0,0.60313,0.20039,0.65396
14.384,0,0.60313,0.19941,0.64809
14.392,0,0.60411,0.19941,0.64223
14.4,0,0.60411,0.19844,0.63245
14.408,0,0.60313,0.19844,0.62072
14.416,0.00097752,0.6002,0.19844,0.60802
14.424,0.0029325,0.59531,0.19746,0.59531
14.432,0.0087977,0.5914,0.19648,0.5826
14.44,0.01564,0.58553,0.19453,0.57087
14.448,0.020528,0.57869,0.19355,0.55816
14.456,0.025415,0.57087,0.19062,0.54741
14.464,0.029326,0.56305,0.18866,0.53666
14.472,0.033236,0.55327,0.18671,0.52786
14.48,0.036168,0.54252,0.18377,0.52102
14.488,0.039101,0.53079,0.18182,0.51515
14.496,0.041056,0.51808,0.17986,0.50929
14.504,0.042033,0.50733,0.17791,0.50342
14.512,0.041056,0.49853,0.17595,0.49756
14.52,0.041056,0.49169,0.174,0.49267
14.528,0.038123,0.48876,0.17204,0.4868
14.536,0.036168,0.4868,0.16911,0.48094
14.544,0.033236,0.48583,0.16716,0.47507
14.552,0.030303,0.48387,0.16618,0.46823
14.56,0.02737,0.48094,0.16422,0.46237
14.568,0.024438,0.47801,0.16325,0.4565
14.576,0.020528,0.47312,0.16227,0.45064
14.584,0.016618,0.46921,0.16227,0.44379
14.592,0.01173,0.46432,0.16129,0.43695
14.6,0.0068426,0.45943,0.16031,0.43011
14.608,0.0029325,0.45552,0.15934,0.42326
14.616,0,0.45259,0.16031,0.41642
14.624,0,0.44966,0.16031,0.40958
14.632,0,0.44575,0.16129,0.40371
14.64,0,0.44184,0.16227,0.39785
14.648,0,0.43793,0.16325,0.39296
14.656,0,0.43304,0.16422,0.38807
14.664,0,0.42913,0.1652,0.38319
14.672,0,0.42522,0.16716,0.38025
14.68,0,0.42229,0.16813,0.37732
14.688,0,0.42033,0.16911,0.37439
14.696,0,0.41935,0.17009,0.37146
14.704,0,0.41838,0.17204,0.3695
14.712,0,0.4174,0.17302,0.36657
14.72,0,0.41642,0.17498,0.36266
14.728,0,0.41642,0.17693,0.35973
14.736,0,0.41642,0.17889,0.35582
14.744,0,0.41642,0.18084,0.35191
14.752,0,0.41642,0.1828,0.348
14.76,0,0.41642,0.18377,0.34409
14.768,0,0.4174,0.18573,0.34213
14.776,0,0.41642,0.18671,0.34115
14.784,0,0.41642,0.18866,0.34115
14.792,0,0.41544,0.18964,0.34018
14.8,0,0.41447,0.19159,0.3392
14.808,0,0.41447,0.19257,0.33822
14.816,0,0.41349,0.19355,0.33724
14.824,0,0.41349,0.19453,0.33529
14.832,0,0.41349,0.1955,0.33333
14.84,0,0.41349,0.19648,0.33236
14.848,0,0.41251,0.19648,0.3304
14.856,0,0.41153,0.19648,0.32942
14.864,0,0.40958,0.19648,0.32845
14.872,0,0.4086,0.19746,0.32747
14.88,0,0.40958,0.19746,0.32747
14.888,0,0.41251,0.19746,0.32649
14.896,0,0.41935,0.19844,0.32454
14.904,0,0.42717,0.19941,0.32356
14.912,0,0.43793,0.20039,0.32258
14.92,0,0.45161,0.20137,0.3216
14.928,0,0.47019,0.20332,0.31965
14.936,0,0.49071,0.2043,0.31769
14.944,0,0.51124,0.20528,0.31574
14.952,0,0.53177,0.20626,0.31378
14.96,0,0.54839,0.20723,0.31281
14.968,0,0.56109,0.20821,0.31281
14.976,0,0.57283,0.20919,0.31476
14.984,0,0.58358,0.21017,0.3216
14.992,0,0.5914,0.21114,0.33236
15,0,0.59824,0.2131,0.348
15.008,0,0.60313,0.21408,0.37048
15.016,0,0.60802,0.21603,0.39785
15.024,0,0.60997,0.21799,0.43011
15.032,0,0.61095,0.21896,0.4653
15.04,0,0.60997,0.22092,0.50147
15.048,0,0.60704,0.22287,0.53861
15.056,0,0.60313,0.22483,0.57283
15.064,0,0.59922,0.22678,0.60411
15.072,0,0.59335,0.22874,0.62854
15.08,0,0.58651,0.22972,0.64614
15.088,0,0.57869,0.23069,0.66373
15.096,0,0.57087,0.23167,0.67742
15.104,0,0.56109,0.23265,0.68719
15.112,0,0.55034,0.23363,0.69404
15.12,0,0.54057,0.2346,0.69599
15.128,0,0.53079,0.23558,0.69404
15.136,0,0.52199,0.23656,0.68915
15.144,0,0.51417,0.23656,0.68328
15.152,0,0.50929,0.23754,0.67546
15.16,0,0.50538,0.23754,0.66764
15.168,0,0.50342,0.23851,0.65787
15.176,0,0.50342,0.23851,0.64809
15.184,0,0.50244,0.23949,0.63734
15.192,0,0.49951,0.23851,0.62561
15.2,0,0.4956,0.23851,0.61388
15.208,0,0.49169,0.23851,0.60117
15.216,0,0.4868,0.23754,0.58944
15.224,0,0.48289,0.23754,0.57771
15.232,0,0.47801,0.23656,0.56598
15.24,0,0.47312,0.23656,0.55621
15.248,0,0.46921,0.23558,0.54643
15.256,0,0.4653,0.23558,0.53666
15.264,0,0.46237,0.2346,0.52786
15.272,0,0.45943,0.23363,0.52004
15.28,0,0.4565,0.23265,0.5132
15.288,0,0.45259,0.23167,0.50733
15.296,0,0.44868,0.23069,0.50147
15.304,0,0.44477,0.22874,0.49462
15.312,0,0.44086,0.22776,0.48778
15.32,0,0.43597,0.22678,0.48094
15.328,0,0.43206,0.22581,0.4741
15.336,0,0.42913,0.22483,0.46823
15.344,0,0.4262,0.22483,0.46139
15.352,0.00097752,0.42424,0.22385,0.45455
15.36,0.0058651,0.42326,0.22385,0.44868
15.368,0.01173,0.42326,0.22385,0.44282
15.376,0.01564,0.42326,0.22385,0.43793
15.384,0.020528,0.42326,0.22385,0.43109
15.392,0.025415,0.42424,0.22483,0.42424
15.4,0.029326,0.42424,0.22581,0.4174
15.408,0.032258,0.42424,0.22678,0.40958
15.416,0.035191,0.42424,0.22776,0.40274
15.424,0.037146,0.42326,0.22972,0.39589
15.432,0.039101,0.42229,0.23069,0.39003
15.44,0.040078,0.42131,0.23265,0.38514
15.448,0.042033,0.42131,0.2346,0.38123
15.456,0.042033,0.42131,0.23656,0.37732
15.464,0.042033,0.42229,0.23851,0.37439
15.472,0.041056,0.42326,0.24047,0.37243
15.48,0.040078,0.42424,0.2434,0.3695
15.488,0.038123,0.42424,0.24536,0.36657
15.496,0.036168,0.42229,0.24829,0.36461
15.504,0.033236,0.42131,0.2522,0.36168
15.512,0.031281,0.42033,0.25513,0.35973
15.52,0.028348,0.42033,0.25806,0.35777
15.528,0.025415,0.42229,0.26002,0.35582
15.536,0.021505,0.42424,0.26295,0.35386
15.544,0.017595,0.42913,0.26588,0.35093
15.552,0.012708,0.43597,0.26882,0.34897
15.56,0.0078201,0.44575,0.27175,0.34702
15.568,0.0039101,0.4565,0.2737,0.34604
15.576,0,0.47312,0.27664,0.34506
15.584,0,0.49071,0.27859,0.34506
15.592,0,0.51026,0.28152,0.34409
15.6,0,0.52884,0.28348,0.34311
15.608,0,0.54545,0.28641,0.34213
15.616,0,0.56012,0.28837,0.34018
15.624,0,0.57185,0.2913,0.3392
15.632,0,0.57967,0.29326,0.33724
15.64,0,0.58553,0.29619,0.33529
15.648,0.0039101,0.58944,0.29814,0.33333
15.656,0.0078201,0.59238,0.30108,0.33138
15.664,0.012708,0.59238,0.30303,0.3304
15.672,0.017595,0.59238,0.30596,0.32942
15.68,0.024438,0.59238,0.30792,0.32747
15.688,0.030303,0.5914,0.30987,0.32551
15.696,0.038123,0.58847,0.31281,0.32454
15.704,0.045943,0.58456,0.31574,0.32454
15.712,0.055718,0.57869,0.31867,0.32454
15.72,0.064516,0.57185,0.3216,0.32356
15.728,0.076246,0.56207,0.32551,0.32356
15.736,0.086999,0.55132,0.32942,0.32356
15.744,0.098729,0.53959,0.33333,0.32356
15.752,0.11046,0.52786,0.33822,0.32356
15.76,0.12219,0.51711,0.34311,0.32454
15.768,0.13294,0.50831,0.34702,0.32747
15.776,0.1437,0.49951,0.35093,0.33236
15.784,0.15445,0.49267,0.35484,0.34115
15.792,0.1652,0.4868,0.35875,0.35582
15.8,0.17595,0.48094,0.36364,0.37634
15.808,0.18671,0.47605,0.36852,0.40371
15.816,0.19746,0.47312,0.37341,0.43597
15.824,0.20723,0.47214,0.3783,0.47214
15.832,0.21701,0.47019,0.38319,0.51026
15.84,0.22581,0.46725,0.38807,0.54839
15.848,0.2346,0.46432,0.39296,0.58456
15.856,0.24438,0.46237,0.39883,0.61681
15.864,0.25415,0.45943,0.40371,0.64223
15.872,0.26491,0.45552,0.40958,0.6608
15.88,0.27664,0.45259,0.41447,0.67742
15.888,0.28837,0.44868,0.42033,0.6911
15.896,0.3001,0.44477,0.42717,0.70088
15.904,0.31281,0.44086,0.43304,0.70772
15.912,0.32454,0.43597,0.43891,0.71065
15.92,0.33627,0.43206,0.44575,0.70968
15.928,0.34702,0.42913,0.45064,0.70577
15.936,0.35777,0.4262,0.45552,0.6999
15.944,0.36852,0.42424,0.46041,0.6911
15.952,0.38025,0.42229,0.4653,0.68035
15.96,0.39198,0.42229,0.46921,0.67058
15.968,0.40469,0.42131,0.4741,0.65982
15.976,0.41838,0.42033,0.47801,0.64907
15.984,0.43109,0.41838,0.48289,0.63832
15.992,0.44379,0.41544,0.48583,0.62659
16,0.4565,0.41349,0.48974,0.61388
16.008,0.46921,0.41251,0.49365,0.60215
16.016,0.48289,0.41153,0.49658,0.58944
16.024,0.49756,0.41153,0.49951,0.57771
16.032,0.51222,0.41251,0.50147,0.56598
16.04,0.52688,0.41251,0.50342,0.55621
16.048,0.54252,0.41153,0.50538,0.54643
16.056,0.55718,0.41056,0.50733,0.53666
16.064,0.57185,0.40958,0.50929,0.52884
16.072,0.58651,0.4086,0.51026,0.52102
16.08,0.59922,0.40665,0.51222,0.51515
16.088,0.61193,0.40567,0.51417,0.50929
16.096,0.62366,0.40469,0.51515,0.50342
16.104,0.63441,0.40469,0.51613,0.49756
16.112,0.64516,0.40274,0.51711,0.49169
16.12,0.65494,0.40078,0.51808,0.48583
16.128,0.66471,0.39883,0.51906,0.47898
16.136,0.67351,0.39687,0.52004,0.47214
16.144,0.68133,0.39394,0.52199,0.4653
16.152,0.68915,0.39198,0.52297,0.45846
16.16,0.69501,0.39003,0.52395,0.45161
16.168,0.70186,0.38905,0.5259,0.44477
16.176,0.7087,0.38905,0.52786,0.43891
16.184,0.71652,0.39198,0.52981,0.43206
16.192,0.72434,0.39687,0.53177,0.4262
16.2,0.73314,0.40567,0.5347,0.42033
16.208,0.74291,0.41544,0.53763,0.41447
16.216,0.75367,0.42815,0.54057,0.40958
16.224,0.76442,0.44282,0.54448,0.40469
16.232,0.77615,0.46041,0.54839,0.3998
16.24,0.7869,0.47801,0.55327,0.39589
16.248,0.79765,0.4956,0.55621,0.39101
16.256,0.80841,0.51026,0.56012,0.3871
16.264,0.81916,0.52297,0.56403,0.38319
16.272,0.83187,0.5347,0.56696,0.38025
16.28,0.84457,0.54448,0.57087,0.37634
16.288,0.85924,0.5523,0.57478,0.37341
16.296,0.8739,0.55816,0.57771,0.37048
16.304,0.88661,0.56109,0.58162,0.36755
16.312,0.90029,0.56305,0.58456,0.36461
16.32,0.913,0.56305,0.58847,0.36266
16.328,0.92473,0.56305,0.5914,0.35973
16.336,0.93744,0.56109,0.59433,0.35679
16.344,0.95015,0.55816,0.59726,0.35484
16.352,0.96285,0.5523,0.6002,0.35288
16.36,0.97556,0.54448,0.60411,0.35093
16.368,0.98729,0.53666,0.60704,0.34995
16.376,1,0.52493,0.61095,0.34897
16.384,1,0.5132,0.61388,0.34702
16.392,1,0.50049,0.61779,0.34409
16.4,1,0.48974,0.6217,0.34115
16.408,1,0.47996,0.62366,0.3392
16.416,1,0.47312,0.62659,0.33724
16.424,1,0.46725,0.62854,0.33627
16.432,1,0.46432,0.6305,0.32551
16.44,1,0.46237,0.63245,0.3089
16.448,1,0.46139,0.63343,0.3001
16.456,1,0.45943,0.63539,0.29423
16.464,1,0.4565,0.63734,0.29032
16.472,1,0.45455,0.63832,0.28837
16.48,1,0.45161,0.6393,0.28543
16.488,1,0.4477,0.64027,0.2825
16.496,1,0.44379,0.64125,0.27957
16.504,1,0.43891,0.64223,0.27859
16.512,1,0.435,0.64321,0.27761
16.52,1,0.43109,0.64418,0.27664
16.528,1,0.42913,0.64516,0.27664
16.536,1,0.4262,0.64614,0.27664
16.544,1,0.42326,0.64712,0.27664
16.552,1,0.42131,0.64907,0.27664
16.56,1,0.41935,0.65005,0.27859
16.568,1,0.4174,0.65103,0.28348
16.576,1,0.41544,0.652,0.2913
16.584,1,0.41349,0.652,0.30694
16.592,0.98729,0.41153,0.65298,0.32942
16.6,0.97458,0.4086,0.65396,0.35875
16.608,0.95503,0.40665,0.65494,0.39492
16.616,0.93646,0.40371,0.65689,0.435
16.624,0.91691,0.40176,0.65885,0.47703
16.632,0.89834,0.40078,0.65982,0.52004
16.64,0.87977,0.39883,0.66178,0.56109
16.648,0.86119,0.39883,0.66178,0.59824
16.656,0.83969,0.39785,0.66276,0.6305
16.664,0.8172,0.39785,0.66373,0.65494
16.672,0.79277,0.39687,0.66471,0.67155
16.68,0.76931,0.39589,0.66569,0.68719
16.688,0.74291,0.39394,0.66764,0.69795
16.696,0.71652,0.39198,0.66862,0.70577
16.704,0.68915,0.39003,0.6696,0.7087
16.712,0.66178,0.38905,0.67058,0.7087
16.72,0.63636,0.38807,0.67253,0.70674
16.728,0.61095,0.38807,0.67253,0.70088
16.736,0.58749,0.3871,0.67351,0.69404
16.744,0.565,0.38612,0.67449,0.68426
16.752,0.53959,0.38416,0.67449,0.67253
16.76,0.51417,0.38221,0.67449,0.65982
16.768,0.48876,0.38123,0.67449,0.64614
16.776,0.46237,0.3783,0.67449,0.63245
16.784,0.43891,0.37537,0.67449,0.61877
16.792,0.41544,0.37243,0.67351,0.60508
16.8,0.39394,0.37048,0.67253,0.5914
16.808,0.37341,0.36852,0.67155,0.57869
16.816,0.35386,0.37048,0.67058,0.56696
16.824,0.33333,0.37439,0.66862,0.55621
16.832,0.31476,0.38221,0.66667,0.54545
16.84,0.29619,0.39394,0.66373,0.53568
16.848,0.27957,0.40958,0.66178,0.52786
16.856,0.26295,0.42424,0.65885,0.52004
16.864,0.24927,0.43891,0.65591,0.51222
16.872,0.23558,0.45552,0.652,0.50538
16.88,0.22483,0.4741,0.64907,0.49853
16.888,0.21505,0.49169,0.64516,0.49267
16.896,0.20821,0.50733,0.64125,0.48583
16.904,0.20137,0.52102,0.63832,0.47996
16.912,0.19746,0.53372,0.63441,0.47312
16.92,0.19355,0.54545,0.63148,0.46628
16.928,0.19159,0.55425,0.62757,0.45846
16.936,0.19062,0.56109,0.62463,0.45259
16.944,0.18964,0.565,0.62072,0.44575
16.952,0.18964,0.56598,0.61779,0.43891
16.96,0.18964,0.565,0.61486,0.43206
16.968,0.19062,0.56109,0.61193,0.42522
16.976,0.19257,0.55621,0.60802,0.42033
16.984,0.19453,0.55132,0.60606,0.41544
16.992,0.19648,0.54448,0.60313,0.40958
17,0.19941,0.53763,0.60117,0.40371
17.008,0.20137,0.52884,0.59824,0.39883
17.016,0.20332,0.51906,0.59531,0.39394
17.024,0.20528,0.51026,0.59238,0.38807
17.032,0.20723,0.50244,0.58847,0.38221
17.04,0.20919,0.4956,0.58553,0.37634
17.048,0.21114,0.48974,0.5826,0.37243
17.056,0.2131,0.48485,0.57967,0.36755
17.064,0.21505,0.48094,0.57674,0.36364
17.072,0.21701,0.47801,0.57478,0.3607
17.08,0.21994,0.47605,0.57185,0.35777
17.088,0.2219,0.47312,0.56794,0.35386
17.096,0.22483,0.47214,0.565,0.35093
17.104,0.22678,0.47019,0.56109,0.348
17.112,0.22972,0.46725,0.55718,0.34506
17.12,0.23167,0.4653,0.55425,0.34213
17.128,0.2346,0.46334,0.55034,0.3392
17.136,0.23754,0.46041,0.54643,0.33627
17.144,0.24047,0.45846,0.54252,0.33333
17.152,0.2434,0.4565,0.53763,0.32942
17.16,0.24731,0.45455,0.53275,0.32649
17.168,0.25024,0.45161,0.52688,0.32356
17.176,0.25415,0.44966,0.52102,0.3216
17.184,0.25806,0.44868,0.51417,0.31965
17.192,0.26197,0.4477,0.50733,0.31672
17.2,0.26588,0.44673,0.49951,0.31476
17.208,0.26979,0.44477,0.49267,0.31281
17.216,0.27273,0.44282,0.48583,0.31183
17.224,0.27566,0.44086,0.47898,0.30987
17.232,0.27859,0.43891,0.47214,0.3089
17.24,0.28152,0.43695,0.4653,0.30792
17.248,0.2825,0.435,0.45748,0.30596
17.256,0.28446,0.43304,0.44966,0.30499
17.264,0.28641,0.43206,0.44184,0.30401
17.272,0.28739,0.43011,0.435,0.30303
17.28,0.28837,0.42913,0.42815,0.30205
17.288,0.28935,0.42815,0.42229,0.3001
17.296,0.28837,0.42815,0.41642,0.29814
17.304,0.28739,0.42815,0.40958,0.29619
17.312,0.28446,0.42815,0.40371,0.29423
17.32,0.2825,0.42815,0.39687,0.29326
17.328,0.27761,0.42913,0.39101,0.29228
17.336,0.2737,0.42913,0.38416,0.29228
17.344,0.26882,0.42913,0.3783,0.29423
17.352,0.26295,0.42815,0.37243,0.29814
17.36,0.25806,0.42815,0.36657,0.30596
17.368,0.25318,0.42815,0.3607,0.31672
17.376,0.24731,0.42815,0.35582,0.33431
17.384,0.24242,0.42815,0.35093,0.35875
17.392,0.2346,0.42815,0.34604,0.39101
17.4,0.22776,0.42815,0.34213,0.42913
17.408,0.21994,0.42717,0.33724,0.47019
17.416,0.21212,0.42522,0.33236,0.51417
17.424,0.2043,0.42424,0.32747,0.55718
17.432,0.19648,0.42424,0.32454,0.59824
17.44,0.18866,0.42522,0.32063,0.63539
17.448,0.18182,0.42815,0.31769,0.66667
17.456,0.174,0.43206,0.31476,0.69208
17.464,0.16618,0.43891,0.31085,0.7087
17.472,0.15738,0.44868,0.30792,0.71848
17.48,0.14956,0.46237,0.30401,0.7263
17.488,0.14272,0.47898,0.3001,0.73021
17.496,0.13587,0.49853,0.29717,0.73021
17.504,0.13001,0.51711,0.29326,0.72727
17.512,0.12414,0.53568,0.29032,0.72336
17.52,0.12023,0.5523,0.28641,0.7175
17.528,0.11632,0.565,0.2825,0.7087
17.536,0.11339,0.57576,0.27957,0.69795
17.544,0.11144,0.58358,0.27566,0.68622
17.552,0.10948,0.59042,0.27175,0.67155
17.56,0.10753,0.59335,0.26784,0.65787
17.568,0.10655,0.59531,0.26393,0.64321
17.576,0.10557,0.59531,0.25904,0.62854
17.584,0.10459,0.59629,0.25513,0.61388
17.592,0.10459,0.59629,0.25122,0.59922
17.6,0.10459,0.59531,0.24731,0.58553
17.608,0.10459,0.59335,0.24438,0.5738
17.616,0.10362,0.59042,0.24047,0.56305
17.624,0.10362,0.58456,0.23656,0.55327
17.632,0.10264,0.57869,0.23265,0.54448
17.64,0.10166,0.57087,0.22776,0.53568
17.648,0.099707,0.56109,0.22385,0.52786
17.656,0.096774,0.5523,0.21896,0.52102
17.664,0.093842,0.5435,0.21408,0.5132
17.672,0.090909,0.53372,0.20821,0.50733
17.68,0.087977,0.52493,0.20332,0.49951
17.688,0.085044,0.51808,0.19941,0.49267
17.696,0.082111,0.5132,0.1955,0.48387
17.704,0.079179,0.50831,0.19159,0.47605
17.712,0.076246,0.50342,0.18768,0.46823
17.72,0.073314,0.50049,0.18475,0.45943
17.728,0.070381,0.49658,0.1828,0.45161
17.736,0.067449,0.49267,0.17986,0.44379
17.744,0.065494,0.48876,0.17693,0.43597
17.752,0.063539,0.48583,0.17498,0.42913
17.76,0.062561,0.48289,0.17302,0.42229
17.768,0.062561,0.47996,0.17107,0.41642
17.776,0.061584,0.47605,0.16911,0.41056
17.784,0.061584,0.47214,0.16813,0.40469
17.792,0.061584,0.46823,0.16618,0.39785
17.8,0.061584,0.4653,0.1652,0.39198
17.808,0.063539,0.46139,0.16325,0.38514
17.816,0.064516,0.45846,0.16325,0.37928
17.824,0.066471,0.45455,0.16227,0.37341
17.832,0.068426,0.45161,0.16227,0.36657
17.84,0.070381,0.44868,0.16129,0.35973
17.848,0.073314,0.44575,0.16129,0.35288
17.856,0.075269,0.44477,0.16227,0.348
17.864,0.078201,0.44282,0.16227,0.34311
17.872,0.081134,0.44086,0.16325,0.34018
17.88,0.085044,0.43988,0.16422,0.33724
17.888,0.088954,0.43891,0.1652,0.33529
17.896,0.092864,0.43793,0.16716,0.33333
17.904,0.096774,0.43597,0.16911,0.3304
17.912,0.10068,0.43402,0.17009,0.32747
17.92,0.10459,0.43304,0.17204,0.32356
17.928,0.10753,0.43206,0.17302,0.31965
17.936,0.11144,0.43109,0.17498,0.31672
17.944,0.11535,0.43109,0.17595,0.31281
17.952,0.12023,0.43109,0.17791,0.31085
17.96,0.12512,0.43109,0.17889,0.30987
17.968,0.13099,0.43109,0.17986,0.3089
17.976,0.13587,0.43109,0.18084,0.30792
17.984,0.14272,0.43109,0.18182,0.30694
17.992,0.14858,0.43011,0.18182,0.30596
18,0.15347,0.43011,0.18182,0.30303
18.008,0.15934,0.42913,0.1828,0.30108
18.016,0.16422,0.42815,0.1828,0.29912
18.024,0.17009,0.42717,0.18377,0.29814
18.032,0.17595,0.42522,0.18377,0.29717
18.04,0.18182,0.42326,0.18377,0.29717
18.048,0.18866,0.42131,0.18377,0.29619
18.056,0.19648,0.42033,0.18377,0.29423
18.064,0.20235,0.41838,0.18377,0.29326
18.072,0.20919,0.4174,0.18377,0.29228
18.08,0.21505,0.41544,0.18377,0.28935
18.088,0.2219,0.41447,0.18475,0.28739
18.096,0.22972,0.41544,0.18475,0.28446
18.104,0.23851,0.42131,0.18573,0.28152
18.112,0.24829,0.43011,0.18671,0.27957
18.12,0.25806,0.44282,0.18866,0.27859
18.128,0.26882,0.45846,0.18964,0.27761
18.136,0.28055,0.47703,0.19062,0.28055
18.144,0.29326,0.49756,0.19257,0.28543
18.152,0.30596,0.51417,0.19355,0.29619
18.16,0.31867,0.52884,0.19453,0.30987
18.168,0.33138,0.54252,0.1955,0.32845
18.176,0.34409,0.55523,0.19746,0.35484
18.184,0.35679,0.565,0.19844,0.38905
18.192,0.37146,0.57283,0.19941,0.42815
18.2,0.38612,0.57674,0.20039,0.47214
18.208,0.40176,0.57869,0.20235,0.51613
18.216,0.41838,0.57967,0.2043,0.55914
18.224,0.43304,0.58065,0.20528,0.59922
18.232,0.4477,0.58065,0.20723,0.63539
18.24,0.46139,0.58065,0.20919,0.66569
18.248,0.47507,0.57869,0.21017,0.69013
18.256,0.48876,0.57771,0.21114,0.70968
18.264,0.50342,0.5738,0.21212,0.72141
18.272,0.51808,0.56989,0.21408,0.72727
18.28,0.53275,0.56305,0.21505,0.73118
18.288,0.54741,0.55425,0.21603,0.73118
18.296,0.56207,0.5435,0.21603,0.72825
18.304,0.57576,0.53079,0.21701,0.72336
18.312,0.59042,0.51808,0.21799,0.71652
18.32,0.60313,0.50635,0.21799,0.70674
18.328,0.61584,0.4956,0.21799,0.69599
18.336,0.62659,0.48778,0.21896,0.68426
18.344,0.63832,0.48192,0.21799,0.67058
18.352,0.64907,0.47996,0.21799,0.65494
18.36,0.6608,0.47801,0.21701,0.64027
18.368,0.67155,0.47801,0.21701,0.62561
18.376,0.68328,0.47703,0.21603,0.60997
18.384,0.69404,0.47605,0.21505,0.59335
18.392,0.70479,0.47312,0.2131,0.57869
18.4,0.71554,0.46921,0.21212,0.565
18.408,0.72532,0.4653,0.21114,0.55327
18.416,0.73705,0.46139,0.21017,0.5435
18.424,0.7478,0.45748,0.20821,0.5347
18.432,0.75953,0.45259,0.20626,0.52688
18.44,0.77126,0.44966,0.20332,0.51906
18.448,0.78299,0.44673,0.20137,0.51222
18.456,0.7957,0.44477,0.19844,0.5044
18.464,0.80743,0.44282,0.19648,0.49756
18.472,0.82014,0.44086,0.19355,0.49169
18.48,0.83187,0.43891,0.19062,0.48289
18.488,0.8436,0.43695,0.18866,0.47214
18.496,0.85435,0.435,0.18573,0.46139
18.504,0.8651,0.43304,0.18377,0.45259
18.512,0.87781,0.43011,0.18182,0.44282
18.52,0.88954,0.42815,0.17986,0.43402
18.528,0.90225,0.4262,0.17889,0.42424
18.536,0.91496,0.42424,0.17791,0.41447
18.544,0.92669,0.42131,0.17791,0.40567
18.552,0.93939,0.42033,0.17693,0.39687
18.56,0.95015,0.41935,0.17595,0.39003
18.568,0.96188,0.41838,0.17498,0.38416
18.576,0.97361,0.4174,0.174,0.37732
18.584,0.98631,0.4174,0.174,0.37048
18.592,0.99316,0.41642,0.174,0.36461
18.6,1,0.41544,0.174,0.35875
18.608,1,0.41447,0.174,0.35288
18.616,1,0.41349,0.17498,0.34702
18.624,1,0.41349,0.17595,0.34115
18.632,1,0.41447,0.17693,0.33627
18.64,1,0.41447,0.17791,0.3304
18.648,1,0.41447,0.17986,0.32551
18.656,1,0.41447,0.18084,0.31965
18.664,1,0.41447,0.18182,0.31672
18.672,1,0.41349,0.18377,0.31378
18.68,1,0.41251,0.18475,0.30987
18.688,1,0.41056,0.18573,0.30694
18.696,1,0.4086,0.18671,0.30401
18.704,1,0.40762,0.18866,0.30108
18.712,1,0.40567,0.18964,0.29717
18.72,1,0.40469,0.19159,0.29423
18.728,1,0.40567,0.19355,0.29032
18.736,1,0.4086,0.1955,0.28543
18.744,1,0.41349,0.19746,0.2825
18.752,1,0.42033,0.19941,0.27957
18.76,1,0.42815,0.20235,0.27761
18.768,1,0.44086,0.2043,0.27566
18.776,1,0.4565,0.20626,0.2737
18.784,1,0.4741,0.20821,0.27273
18.792,1,0.49267,0.21017,0.27077
18.8,1,0.51026,0.21114,0.26882
18.808,1,0.52688,0.2131,0.26588
18.816,1,0.54154,0.21505,0.26491
18.824,1,0.55327,0.21701,0.26295
18.832,1,0.56305,0.21896,0.261
18.84,1,0.57087,0.2219,0.25904
18.848,1,0.57478,0.22385,0.25806
18.856,1,0.57771,0.22581,0.25709
18.864,1,0.57869,0.22776,0.25709
18.872,1,0.57869,0.23069,0.25806
18.88,1,0.57674,0.23265,0.25611
18.888,1,0.57283,0.2346,0.25415
18.896,1,0.56696,0.23754,0.2522
18.904,1,0.55816,0.24145,0.24927
18.912,1,0.54839,0.24438,0.24536
18.92,1,0.53763,0.24927,0.24242
18.928,1,0.52688,0.25318,0.24242
18.936,1,0.51711,0.25806,0.24731
18.944,0.98436,0.50733,0.26295,0.25806
18.952,0.96872,0.49951,0.26882,0.27664
18.96,0.94819,0.49365,0.27468,0.29912
18.968,0.92766,0.48876,0.27957,0.32551
18.976,0.90714,0.48387,0.28543,0.3607
18.984,0.88661,0.47801,0.29032,0.40274
18.992,0.86413,0.47019,0.29619,0.44966
19,0.84164,0.4653,0.30108,0.49853
19.008,0.81818,0.46334,0.30694,0.54545
19.016,0.79472,0.46041,0.31281,0.59042
19.024,0.77322,0.45748,0.31867,0.62952
19.032,0.75269,0.45357,0.32454,0.66373
19.04,0.73314,0.44868,0.32942,0.69013
19.048,0.71457,0.44379,0.33431,0.71065
19.056,0.69599,0.43891,0.33822,0.72434
19.064,0.67742,0.435,0.34311,0.73118
19.072,0.65885,0.43206,0.34897,0.73412
19.08,0.64125,0.42913,0.35386,0.73314
19.088,0.62463,0.4262,0.35973,0.73021
19.096,0.60899,0.42326,0.36559,0.72434
19.104,0.59531,0.42033,0.37146,0.71554
19.112,0.58162,0.41838,0.37732,0.70479
19.12,0.56989,0.41544,0.38319,0.69404
19.128,0.55816,0.41447,0.38807,0.68133
19.136,0.54839,0.41153,0.39296,0.66764
19.144,0.53959,0.40958,0.39687,0.65298
19.152,0.53177,0.40762,0.40078,0.63734
19.16,0.52493,0.40567,0.40371,0.62268
19.168,0.51906,0.40371,0.40762,0.60802
19.176,0.5132,0.40078,0.41153,0.59238
19.184,0.50831,0.39785,0.41544,0.57674
19.192,0.5044,0.39589,0.41838,0.56207
19.2,0.50049,0.39296,0.42131,0.54741
19.208,0.49658,0.39101,0.42326,0.53372
19.216,0.49267,0.39003,0.42522,0.52199
19.224,0.48876,0.38905,0.42717,0.51124
19.232,0.48387,0.38905,0.43011,0.50049
19.24,0.47996,0.38905,0.43206,0.49169
19.248,0.4741,0.38905,0.43402,0.48387
19.256,0.46921,0.38905,0.43597,0.47801
19.264,0.46334,0.38905,0.43793,0.47116
19.272,0.45748,0.38807,0.43988,0.46237
19.28,0.45161,0.38807,0.44184,0.45357
19.288,0.44575,0.3871,0.44379,0.44575
19.296,0.43891,0.3871,0.44575,0.43695
19.304,0.43206,0.3871,0.4477,0.42913
19.312,0.42326,0.3871,0.45064,0.42033
19.32,0.41447,0.38807,0.45259,0.41251
19.328,0.40469,0.38807,0.45552,0.40371
19.336,0.39492,0.38905,0.45846,0.39589
19.344,0.38514,0.39101,0.46139,0.3871
19.352,0.37537,0.39296,0.4653,0.37928
19.36,0.36657,0.39687,0.46823,0.37243
19.368,0.35777,0.40274,0.47214,0.36657
19.376,0.34897,0.41349,0.47605,0.3607
19.384,0.34018,0.42913,0.47996,0.35582
19.392,0.33138,0.44868,0.48485,0.34995
19.4,0.32356,0.47116,0.48974,0.34409
19.408,0.31672,0.4956,0.49462,0.3392
19.416,0.31085,0.52102,0.49951,0.33431
19.424,0.30596,0.54448,0.5044,0.32942
19.432,0.30108,0.56794,0.50831,0.32356
19.44,0.29717,0.58651,0.5132,0.31769
19.448,0.29423,0.60117,0.51808,0.31183
19.456,0.29228,0.60997,0.52297,0.30792
19.464,0.2913,0.61584,0.52688,0.30499
19.472,0.2913,0.61877,0.53177,0.30205
19.48,0.2913,0.62072,0.53568,0.29814
19.488,0.29326,0.6217,0.54057,0.29521
19.496,0.29521,0.62072,0.54448,0.29228
19.504,0.29717,0.61681,0.54936,0.28837
19.512,0.29912,0.6129,0.5523,0.28446
19.52,0.30108,0.60802,0.55621,0.28055
19.528,0.30303,0.60411,0.56012,0.27761
19.536,0.30499,0.59824,0.56403,0.27468
19.544,0.30694,0.5914,0.56794,0.27273
19.552,0.3089,0.58358,0.57185,0.27077
19.56,0.31085,0.57478,0.57674,0.26979
19.568,0.31085,0.56207,0.58162,0.26979
19.576,0.31085,0.54839,0.58553,0.26784
19.584,0.3089,0.5347,0.59042,0.26686
19.592,0.30694,0.52395,0.59433,0.26491
19.6,0.30401,0.51417,0.59922,0.26295
19.608,0.30205,0.50733,0.60215,0.261
19.616,0.29814,0.50342,0.60606,0.25904
19.624,0.29521,0.50147,0.60802,0.25611
19.632,0.2913,0.49853,0.61095,0.25318
19.64,0.28739,0.49462,0.6129,0.25122
19.648,0.2825,0.49071,0.61584,0.24829
19.656,0.27761,0.4868,0.61877,0.24633
19.664,0.27273,0.48192,0.6217,0.24633
19.672,0.26784,0.47801,0.62463,0.24536
19.68,0.26295,0.4741,0.62757,0.24536
19.688,0.25806,0.47019,0.6305,0.24536
19.696,0.25318,0.46628,0.63245,0.24536
19.704,0.24927,0.46237,0.63539,0.24438
19.712,0.24438,0.45748,0.63832,0.2434
19.72,0.24047,0.45161,0.64125,0.2434
19.728,0.23656,0.4477,0.64516,0.24536
19.736,0.23363,0.44282,0.64907,0.2522
19.744,0.23069,0.43891,0.65298,0.26491
19.752,0.22874,0.435,0.65689,0.28543
19.76,0.22678,0.43304,0.66178,0.3089
19.768,0.22483,0.43109,0.66569,0.33724
19.776,0.22385,0.42815,0.67058,0.37341
19.784,0.22287,0.4262,0.67449,0.41642
19.792,0.2219,0.42326,0.67937,0.46334
19.8,0.22092,0.42033,0.68426,0.51026
19.808,0.22092,0.41838,0.68915,0.55621
19.816,0.21994,0.41544,0.69404,0.59824
19.824,0.21994,0.41349,0.69892,0.63441
19.832,0.21994,0.41153,0.70381,0.66373
19.84,0.21896,0.41056,0.7087,0.68719
19.848,0.21896,0.41153,0.71359,0.70381
19.856,0.21799,0.41153,0.71848,0.71261
19.864,0.21701,0.41153,0.72239,0.7175
19.872,0.21505,0.41056,0.72727,0.7175
19.88,0.2131,0.40958,0.73216,0.71554
19.888,0.20919,0.40762,0.73607,0.70968
19.896,0.20528,0.40762,0.73998,0.70088
19.904,0.20039,0.40762,0.74487,0.6911
19.912,0.1955,0.40762,0.74878,0.67937
19.92,0.18964,0.4086,0.75269,0.66667
19.928,0.18475,0.40958,0.75562,0.65298
19.936,0.17986,0.40762,0.75953,0.63832
19.944,0.17498,0.40567,0.76246,0.62366
19.952,0.16813,0.40469,0.7654,0.60802
19.96,0.16129,0.40274,0.76735,0.59335
19.968,0.15249,0.40176,0.76931,0.57869
19.976,0.14467,0.40176,0.77126,0.56403
19.984,0.13685,0.40274,0.77224,0.54936
19.992,0.12903,0.40469,0.77322,0.5347
20,0.12219,0.4086,0.77419,0.52102
20.008,0.11535,0.41642,0.77419,0.50831
20.016,0.1085,0.42717,0.77419,0.49853
20.024,0.10166,0.44282,0.77419,0.48974
20.032,0.094819,0.46237,0.77322,0.48289
20.04,0.087977,0.48485,0.77224,0.47703
20.048,0.083089,0.5044,0.77126,0.47019
20.056,0.078201,0.52395,0.76931,0.46432
20.064,0.074291,0.54545,0.76833,0.45846
20.072,0.071359,0.56891,0.76735,0.45064
20.08,0.068426,0.58944,0.76637,0.44282
20.088,0.066471,0.60704,0.76442,0.43402
20.096,0.065494,0.62072,0.76344,0.4262
20.104,0.065494,0.62854,0.76246,0.41838
20.112,0.064516,0.63343,0.76149,0.41056
20.12,0.064516,0.63539,0.76051,0.40274
20.128,0.063539,0.63441,0.76051,0.39492
20.136,0.063539,0.6305,0.76051,0.3871
20.144,0.064516,0.62659,0.76051,0.37928
20.152,0.065494,0.6217,0.75953,0.37146
20.16,0.066471,0.61584,0.75953,0.36559
20.168,0.067449,0.61095,0.75953,0.35973
20.176,0.068426,0.60508,0.75855,0.35386
20.184,0.069404,0.59922,0.75758,0.34897
20.192,0.070381,0.59042,0.75758,0.34311
20.2,0.071359,0.57869,0.7566,0.33724
20.208,0.072336,0.56403,0.75562,0.33236
20.216,0.073314,0.54839,0.75464,0.32747
20.224,0.075269,0.53372,0.75367,0.32356
20.232,0.077224,0.52102,0.75171,0.31965
20.24,0.080156,0.51026,0.74976,0.31574
20.248,0.083089,0.50342,0.7478,0.31183
20.256,0.086999,0.49756,0.74682,0.3089
20.264,0.090909,0.49267,0.74487,0.30596
20.272,0.096774,0.48974,0.74389,0.30303
20.28,0.10264,0.48485,0.74194,0.29912
20.288,0.10948,0.47996,0.74096,0.29521
20.296,0.11632,0.4741,0.73998,0.29228
20.304,0.12414,0.46921,0.739,0.28935
20.312,0.13196,0.4653,0.73705,0.28739
20.32,0.14076,0.46041,0.73607,0.28543
20.328,0.14956,0.45455,0.73509,0.28348
20.336,0.16129,0.44966,0.73412,0.28055
20.344,0.17302,0.44379,0.73216,0.27761
20.352,0.18671,0.43891,0.73021,0.27468
20.36,0.20137,0.435,0.72825,0.2737
20.368,0.21701,0.43206,0.7263,0.27273
20.376,0.23265,0.42913,0.72336,0.27175
20.384,0.24927,0.42717,0.72043,0.26979
20.392,0.26686,0.42522,0.71652,0.26882
20.4,0.2825,0.42326,0.71261,0.26686
20.408,0.29814,0.42131,0.7087,0.26491
20.416,0.31183,0.41935,0.70479,0.26295
20.424,0.32649,0.4174,0.6999,0.26197
20.432,0.34213,0.41642,0.69599,0.26002
20.44,0.35777,0.41544,0.69013,0.26002
20.448,0.37341,0.41544,0.68524,0.26002
20.456,0.38905,0.41544,0.6784,0.26002
20.464,0.40371,0.41447,0.67253,0.261
20.472,0.41935,0.41447,0.66667,0.26197
20.48,0.43304,0.41349,0.6608,0.261
20.488,0.44673,0.41153,0.65494,0.26002
20.496,0.46041,0.40958,0.64907,0.25806
20.504,0.47507,0.4086,0.64125,0.25709
20.512,0.48974,0.40958,0.63441,0.25611
20.52,0.5044,0.40958,0.62659,0.25806
20.528,0.51906,0.40958,0.61877,0.26784
20.536,0.53372,0.40958,0.60997,0.28543
20.544,0.54839,0.40762,0.60215,0.30792
20.552,0.56207,0.40762,0.59335,0.33724
20.56,0.57478,0.40665,0.58456,0.36852
20.568,0.58651,0.40567,0.57576,0.40176
20.576,0.59726,0.40371,0.56794,0.44379
20.584,0.60704,0.40274,0.56012,0.48974
20.592,0.61681,0.40078,0.5523,0.53763
20.6,0.62561,0.3998,0.54448,0.58358
20.608,0.63441,0.39785,0.53666,0.62561
20.616,0.64321,0.39589,0.52786,0.66276
20.624,0.65103,0.39492,0.51906,0.69306
20.632,0.65982,0.39589,0.51026,0.7175
20.64,0.66764,0.39687,0.50244,0.73509
20.648,0.67546,0.3998,0.49365,0.74585
20.656,0.68426,0.40567,0.48485,0.75073
20.664,0.69306,0.41447,0.47605,0.75073
20.672,0.70186,0.42717,0.46725,0.7478
20.68,0.71163,0.44379,0.45846,0.74291
20.688,0.72336,0.4653,0.44966,0.73607
20.696,0.73509,0.48778,0.43988,0.7263
20.704,0.7478,0.51026,0.43011,0.71457
20.712,0.76051,0.53079,0.42131,0.70283
20.72,0.77322,0.54936,0.41153,0.68915
20.728,0.78495,0.56696,0.40274,0.67449
20.736,0.79668,0.58162,0.39492,0.65982
20.744,0.80841,0.59238,0.38612,0.64516
20.752,0.82014,0.59824,0.3783,0.62952
20.76,0.83284,0.6002,0.3695,0.61584
20.768,0.84555,0.60117,0.3607,0.60215
20.776,0.85924,0.60215,0.35191,0.58847
20.784,0.87097,0.60215,0.34213,0.57576
20.792,0.88368,0.60215,0.33333,0.56305
20.8,0.89541,0.59922,0.32454,0.55132
20.808,0.90616,0.59433,0.31672,0.53959
20.816,0.91789,0.58651,0.3089,0.52884
20.824,0.92962,0.57576,0.30108,0.51906
20.832,0.94233,0.56207,0.29228,0.51026
20.84,0.95406,0.54545,0.28348,0.50244
20.848,0.96676,0.52981,0.27566,0.4956
20.856,0.97947,0.51808,0.26686,0.48876
20.864,0.98925,0.50635,0.25806,0.48289
20.872,1,0.4956,0.24927,0.47605
20.88,1,0.4868,0.24047,0.46725
20.888,1,0.47898,0.23363,0.45748
20.896,1,0.47312,0.22678,0.4477
20.904,1,0.46921,0.22092,0.43793
20.912,1,0.4653,0.21505,0.42815
20.92,1,0.46139,0.20919,0.41838
20.928,1,0.45846,0.2043,0.40958
20.936,1,0.45552,0.19844,0.40078
20.944,1,0.45357,0.19257,0.39198
20.952,1,0.45064,0.18866,0.38514
20.96,1,0.44868,0.18377,0.3783
20.968,1,0.44673,0.17986,0.37243
20.976,1,0.44282,0.17595,0.36657
20.984,1,0.43988,0.17302,0.3607
20.992,1,0.43597,0.17009,0.35484
21,1,0.43206,0.16716,0.34995
21.008,1,0.42913,0.1652,0.34409
21.016,1,0.42717,0.16325,0.3392
21.024,1,0.42522,0.16129,0.33431
21.032,1,0.42131,0.15934,0.3304
21.04,1,0.41544,0.15738,0.32747
21.048,1,0.41153,0.1564,0.32454
21.056,1,0.4086,0.15543,0.32258
21.064,1,0.40665,0.15543,0.32063
21.072,1,0.40371,0.15445,0.31867
21.08,1,0.40078,0.15445,0.31476
21.088,1,0.39883,0.15347,0.31183
21.096,1,0.39785,0.15347,0.30792
21.104,1,0.39687,0.15249,0.30401
21.112,1,0.39492,0.15249,0.30108
21.12,1,0.39296,0.15152,0.29814
21.128,1,0.39198,0.15152,0.29423
21.136,1,0.39003,0.15054,0.2913
21.144,1,0.38905,0.15054,0.28837
21.152,1,0.38905,0.14956,0.28641
21.16,1,0.38905,0.14858,0.28543
21.168,1,0.38905,0.14858,0.28348
21.176,1,0.38807,0.14858,0.2825
21.184,1,0.3871,0.14858,0.28152
21.192,1,0.38612,0.14858,0.28055
21.2,0.9912,0.38416,0.14858,0.27859
21.208,0.98143,0.38416,0.14858,0.27761
21.216,0.95406,0.38319,0.14858,0.27664
21.224,0.92571,0.38123,0.14858,0.27468
21.232,0.89443,0.3783,0.14858,0.2737
21.24,0.86413,0.37634,0.14858,0.27175
21.248,0.83089,0.37439,0.14956,0.27077
21.256,0.79765,0.37243,0.14956,0.26979
21.264,0.76735,0.37048,0.15054,0.26882
21.272,0.73803,0.3695,0.15152,0.26784
21.28,0.70968,0.3695,0.15152,0.26686
21.288,0.68231,0.37341,0.15249,0.26588
21.296,0.65591,0.38025,0.15445,0.26491
21.304,0.62952,0.39198,0.15543,0.26588
21.312,0.60508,0.40762,0.15738,0.26979
21.32,0.57967,0.42717,0.15934,0.27761
21.328,0.55816,0.44868,0.16129,0.2913
21.336,0.53666,0.47019,0.16325,0.31183
21.344,0.51906,0.48974,0.1652,0.34115
21.352,0.50147,0.50538,0.16716,0.37048
21.36,0.4868,0.52199,0.16813,0.40274
21.368,0.47214,0.53568,0.17009,0.44379
21.376,0.46041,0.54545,0.17204,0.49071
21.384,0.44868,0.55327,0.17302,0.53959
21.392,0.43891,0.55816,0.17498,0.58749
21.4,0.43011,0.56109,0.17595,0.63148
21.408,0.42326,0.56207,0.17693,0.6696
21.416,0.41642,0.56109,0.17889,0.70186
21.424,0.41056,0.55914,0.17986,0.7263
21.432,0.40567,0.55718,0.18084,0.74487
21.44,0.40078,0.55327,0.18182,0.7566
21.448,0.39687,0.54741,0.1828,0.76246
21.456,0.39198,0.54154,0.18475,0.76344
21.464,0.38807,0.53275,0.18475,0.75953
21.472,0.38319,0.52199,0.18573,0.75464
21.48,0.37928,0.51026,0.18573,0.7478
21.488,0.37439,0.49853,0.18573,0.739
21.496,0.37048,0.48778,0.18573,0.72825
21.504,0.36657,0.47996,0.18573,0.71652
21.512,0.36266,0.47214,0.18475,0.70283
21.52,0.35973,0.46725,0.18475,0.68817
21.528,0.35582,0.46334,0.18377,0.67155
21.536,0.35288,0.46139,0.1828,0.65396
21.544,0.34995,0.46041,0.18182,0.63734
21.552,0.348,0.45943,0.18182,0.6217
21.56,0.34702,0.4565,0.17986,0.60704
21.568,0.34702,0.45455,0.17791,0.59238
21.576,0.34702,0.45064,0.17498,0.57869
21.584,0.348,0.44575,0.17204,0.56598
21.592,0.34897,0.44184,0.17009,0.55425
21.6,0.35093,0.43695,0.16716,0.54448
21.608,0.35288,0.43304,0.1652,0.5347
21.616,0.35679,0.42815,0.16325,0.5259
21.624,0.3607,0.42424,0.16129,0.51515
21.632,0.36559,0.42131,0.15934,0.50538
21.64,0.37048,0.41935,0.1564,0.4956
21.648,0.37634,0.4174,0.15445,0.48583
21.656,0.38221,0.41642,0.15152,0.47703
21.664,0.38807,0.41447,0.14858,0.46921
21.672,0.39394,0.41153,0.14663,0.46041
21.68,0.39883,0.4086,0.1437,0.45357
21.688,0.40469,0.40665,0.14174,0.44673
21.696,0.41056,0.40567,0.13978,0.44086
21.704,0.41544,0.40567,0.13783,0.43304
21.712,0.42033,0.40567,0.13685,0.42522
21.72,0.4262,0.40567,0.13587,0.4174
21.728,0.43109,0.40469,0.1349,0.40958
21.736,0.43597,0.40371,0.1349,0.40078
21.744,0.43891,0.40274,0.1349,0.39198
21.752,0.44282,0.40274,0.1349,0.38416
21.76,0.44575,0.40176,0.13587,0.37732
21.768,0.44868,0.40176,0.13783,0.37048
21.776,0.44966,0.40274,0.13881,0.36461
21.784,0.45161,0.40469,0.14076,0.35777
21.792,0.45161,0.40665,0.1437,0.35288
21.8,0.45161,0.40958,0.14565,0.34702
21.808,0.45064,0.41056,0.14858,0.34115
21.816,0.44868,0.40958,0.15152,0.33627
21.824,0.44575,0.4086,0.15543,0.33138
21.832,0.44282,0.40567,0.15934,0.32747
21.84,0.43891,0.40469,0.16325,0.32551
21.848,0.43597,0.40469,0.16618,0.32258
21.856,0.43206,0.40469,0.17009,0.32063
21.864,0.42717,0.40567,0.174,0.31867
21.872,0.42131,0.40567,0.17791,0.31672
21.88,0.41544,0.40469,0.1828,0.31476
21.888,0.4086,0.40274,0.18768,0.31183
21.896,0.40078,0.40078,0.19257,0.3089
21.904,0.39296,0.3998,0.19746,0.30596
21.912,0.38612,0.40078,0.20235,0.30303
21.92,0.3783,0.40567,0.20723,0.29912
21.928,0.37048,0.41544,0.21114,0.29521
21.936,0.36168,0.42913,0.21603,0.2913
21.944,0.35386,0.44575,0.22092,0.28739
21.952,0.34506,0.46432,0.22581,0.28543
21.96,0.33724,0.48876,0.23069,0.28348
21.968,0.32942,0.5132,0.23656,0.2825
21.976,0.3216,0.53861,0.24242,0.28152
21.984,0.31476,0.56109,0.24829,0.28152
21.992,0.30694,0.58065,0.25415,0.28152
22,0.30108,0.59726,0.26002,0.27957
22.008,0.29521,0.60997,0.26491,0.27761
22.016,0.28935,0.62072,0.27077,0.27566
22.024,0.28446,0.62659,0.27468,0.27273
22.032,0.27957,0.62952,0.27957,0.26979
22.04,0.27566,0.63148,0.28543,0.26784
22.048,0.27175,0.63148,0.29032,0.26588
22.056,0.26784,0.62952,0.29619,0.26393
22.064,0.26393,0.62561,0.30205,0.26393
22.072,0.26002,0.6217,0.30694,0.26197
22.08,0.25709,0.61584,0.31281,0.26002
22.088,0.25318,0.61095,0.31769,0.25806
22.096,0.24829,0.60411,0.32356,0.25806
22.104,0.2434,0.59629,0.3304,0.261
22.112,0.23656,0.58651,0.33627,0.26784
22.12,0.22972,0.57478,0.34311,0.28055
22.128,0.2219,0.56109,0.35093,0.30108
22.136,0.21505,0.54643,0.35777,0.3304
22.144,0.20626,0.53275,0.36559,0.36559
22.152,0.19844,0.52102,0.37341,0.3998
22.16,0.19062,0.51026,0.38221,0.43597
22.168,0.1828,0.50147,0.38905,0.47898
22.176,0.17595,0.4956,0.39589,0.52297
22.184,0.16813,0.49267,0.40274,0.56794
22.192,0.16031,0.49169,0.40958,0.60997
22.2,0.15347,0.49071,0.4174,0.64809
22.208,0.14565,0.49071,0.42424,0.68133
22.216,0.13783,0.48876,0.43206,0.70772
22.224,0.13099,0.48583,0.43988,0.72825
22.232,0.12512,0.48094,0.44673,0.74096
22.24,0.12023,0.47605,0.45357,0.74878
22.248,0.11535,0.47116,0.46041,0.75073
22.256,0.11241,0.46725,0.46725,0.74878
22.264,0.1085,0.46237,0.4741,0.74389
22.272,0.10655,0.45846,0.48094,0.73803
22.28,0.10362,0.45357,0.48876,0.72923
22.288,0.10166,0.44868,0.49658,0.71848
22.296,0.099707,0.44282,0.5044,0.70577
22.304,0.097752,0.43793,0.51222,0.6911
22.312,0.096774,0.43206,0.52004,0.67644
22.32,0.096774,0.42717,0.52884,0.6608
22.328,0.095797,0.42229,0.53568,0.64418
22.336,0.095797,0.41935,0.5435,0.62854
22.344,0.095797,0.41935,0.55034,0.61193
22.352,0.096774,0.41935,0.55621,0.59726
22.36,0.096774,0.41935,0.56207,0.58456
22.368,0.096774,0.41838,0.56891,0.57087
22.376,0.096774,0.41642,0.5738,0.55816
22.384,0.097752,0.41447,0.57967,0.54643
22.392,0.098729,0.41251,0.58456,0.5347
22.4,0.099707,0.41056,0.59042,0.52297
22.408,0.10068,0.40958,0.59531,0.51222
22.416,0.10068,0.40762,0.60117,0.50147
22.424,0.10166,0.40762,0.60704,0.49267
22.432,0.10264,0.40665,0.6129,0.48387
22.44,0.10362,0.40567,0.61877,0.47605
22.448,0.10557,0.40567,0.62561,0.46823
22.456,0.10655,0.40567,0.63343,0.46041
22.464,0.1085,0.40469,0.64027,0.45455
22.472,0.11144,0.40274,0.64809,0.44673
22.48,0.11339,0.40078,0.65591,0.43891
22.488,0.11535,0.39785,0.66276,0.43109
22.496,0.11828,0.39492,0.67058,0.42229
22.504,0.12023,0.39296,0.67742,0.41447
22.512,0.12414,0.39003,0.68524,0.40567
22.52,0.12903,0.3871,0.69306,0.39785
22.528,0.13392,0.38416,0.70088,0.39003
22.536,0.13978,0.38221,0.70968,0.38221
22.544,0.14565,0.38025,0.71848,0.37439
22.552,0.15152,0.38123,0.72727,0.36852
22.56,0.15738,0.38319,0.73607,0.36364
22.568,0.16422,0.38807,0.74389,0.35777
22.576,0.17204,0.39687,0.75171,0.34995
22.584,0.18084,0.40958,0.75953,0.34115
22.592,0.19159,0.42522,0.76735,0.33431
22.6,0.20235,0.44477,0.77615,0.32845
22.608,0.21408,0.46725,0.78397,0.32356
22.616,0.22678,0.49071,0.79277,0.31965
22.624,0.24145,0.5132,0.80254,0.31574
22.632,0.25513,0.53372,0.81134,0.31183
22.64,0.26784,0.55327,0.82014,0.3089
22.648,0.28152,0.56891,0.82893,0.30694
22.656,0.29423,0.57967,0.83675,0.30596
22.664,0.30694,0.58847,0.8436,0.30401
22.672,0.3216,0.59433,0.85142,0.30205
22.68,0.33627,0.59726,0.85826,0.3001
22.688,0.35191,0.59922,0.8651,0.29619
22.696,0.36852,0.59922,0.87097,0.2913
22.704,0.38319,0.59629,0.87781,0.28543
22.712,0.39785,0.59335,0.8827,0.27957
22.72,0.41153,0.59042,0.88856,0.27566
22.728,0.42522,0.58456,0.89247,0.27273
22.736,0.43891,0.57771,0.89736,0.27175
22.744,0.45357,0.57087,0.90127,0.27175
22.752,0.46823,0.56109,0.90616,0.27273
22.76,0.48289,0.54936,0.91007,0.2737
22.768,0.49658,0.53666,0.91398,0.2737
22.776,0.51124,0.52297,0.91887,0.27273
22.784,0.52493,0.51026,0.92278,0.27175
22.792,0.53763,0.49951,0.92766,0.26882
22.8,0.54936,0.49071,0.93255,0.26491
22.808,0.56207,0.48387,0.93646,0.26197
22.816,0.57283,0.47703,0.94037,0.25904
22.824,0.58358,0.47312,0.9433,0.25709
22.832,0.59433,0.47019,0.94721,0.25513
22.84,0.60508,0.46823,0.95112,0.25318
22.848,0.61584,0.4653,0.95503,0.25122
22.856,0.62659,0.46237,0.95894,0.25024
22.864,0.63734,0.45943,0.96285,0.24829
22.872,0.64712,0.4565,0.96676,0.24633
22.88,0.65591,0.45259,0.97067,0.24438
22.888,0.66569,0.4477,0.97361,0.2434
22.896,0.67644,0.44379,0.97654,0.2434
22.904,0.68719,0.43988,0.97947,0.24633
22.912,0.6999,0.435,0.9824,0.25415
22.92,0.71163,0.42913,0.98534,0.26784
22.928,0.72434,0.42522,0.98925,0.28739
22.936,0.73803,0.42131,0.99218,0.31476
22.944,0.75171,0.41838,0.99511,0.34897
22.952,0.7654,0.41642,0.99804,0.38319
22.96,0.7781,0.41447,1,0.41935
22.968,0.79081,0.41153,1,0.46041
22.976,0.80254,0.40958,1,0.5044
22.984,0.81427,0.40665,1,0.54643
22.992,0.82796,0.40371,1,0.58651
23,0.84164,0.40078,1,0.6217
23.008,0.85533,0.39785,1,0.65103
23.016,0.86999,0.39589,1,0.67253
23.024,0.8827,0.39492,1,0.69013
23.032,0.89541,0.39394,1,0.70186
23.04,0.90811,0.39296,1,0.7087
23.048,0.91984,0.39394,1,0.70968
23.056,0.93255,0.39394,1,0.70772
23.064,0.94624,0.39296,1,0.70088
23.072,0.95894,0.39296,1,0.69306
23.08,0.97263,0.39492,1,0.68231
23.088,0.98436,0.39589,1,0.67058
23.096,0.99609,0.39687,1,0.65689
23.104,0.99804,0.39687,1,0.64321
23.112,1,0.39589,1,0.62854
23.12,1,0.39394,1,0.61388
23.128,1,0.39394,1,0.59922
23.136,1,0.39296,1,0.58456
23.144,1,0.39296,1,0.56891
23.152,1,0.39296,1,0.55621
23.16,1,0.39198,1,0.54448
23.168,1,0.39101,1,0.53275
23.176,1,0.38807,1,0.52199
23.184,1,0.3871,1,0.51222
23.192,1,0.38612,0.99609,0.50342
23.2,1,0.38807,0.99218,0.4956
23.208,1,0.39003,0.98729,0.48778
23.216,1,0.39492,0.9824,0.47996
23.224,1,0.40469,0.97752,0.47214
23.232,1,0.41838,0.97263,0.46334
23.24,1,0.43304,0.96774,0.45357
23.248,1,0.4477,0.96285,0.44575
23.256,1,0.46823,0.95797,0.43988
23.264,1,0.48974,0.95308,0.43402
23.272,1,0.51026,0.94819,0.42815
23.28,1,0.52884,0.94428,0.42229
23.288,1,0.54448,0.94037,0.41544
23.296,1,0.55718,0.93646,0.4086
23.304,1,0.56598,0.93255,0.40176
23.312,1,0.57283,0.92962,0.39492
23.32,1,0.57771,0.92571,0.3871
23.328,1,0.58065,0.92278,0.38025
23.336,1,0.58162,0.91887,0.37341
23.344,1,0.58162,0.91593,0.36657
23.352,1,0.58065,0.91202,0.36168
23.36,1,0.57869,0.90909,0.35777
23.368,1,0.5738,0.90518,0.35288
23.376,1,0.56598,0.90127,0.348
23.384,1,0.55621,0.89736,0.34311
23.392,1,0.54448,0.89443,0.33724
23.4,1,0.52981,0.89052,0.33236
23.408,1,0.51515,0.88661,0.32747
23.416,1,0.50342,0.88172,0.32454
23.424,0.98436,0.49169,0.87683,0.32063
23.432,0.96872,0.48192,0.87195,0.31867
23.44,0.95112,0.4741,0.86608,0.31672
23.448,0.93353,0.46823,0.86119,0.31574
23.456,0.91593,0.46334,0.85533,0.31476
23.464,0.89736,0.46041,0.85044,0.31378
23.472,0.87683,0.45846,0.84555,0.31281
23.48,0.8563,0.45846,0.83969,0.31085
23.488,0.83382,0.45748,0.83284,0.30792
23.496,0.81232,0.4565,0.826,0.30499
23.504,0.79081,0.45259,0.81916,0.30205
23.512,0.77028,0.44868,0.81134,0.29814
23.52,0.75073,0.44379,0.8045,0.29423
23.528,0.73216,0.43891,0.79765,0.29032
23.536,0.71261,0.43402,0.79081,0.28641
23.544,0.69404,0.42913,0.78104,0.2825
23.552,0.67449,0.4262,0.77224,0.28055
23.56,0.65494,0.42326,0.76246,0.27957
23.568,0.63734,0.42033,0.75171,0.27761
23.576,0.61975,0.4174,0.73998,0.27664
23.584,0.60411,0.41447,0.72825,0.27468
23.592,0.58944,0.41251,0.71554,0.27468
23.6,0.57576,0.40958,0.70283,0.2737
23.608,0.56305,0.40665,0.6911,0.2737
23.616,0.55327,0.40469,0.67937,0.2737
23.624,0.54252,0.40274,0.66862,0.2737
23.632,0.5347,0.40078,0.65787,0.2737
23.64,0.5259,0.3998,0.64614,0.2737
23.648,0.52004,0.39785,0.63343,0.27273
23.656,0.5132,0.39589,0.6217,0.27273
23.664,0.50733,0.39394,0.60899,0.27077
23.672,0.50244,0.39198,0.59824,0.26979
23.68,0.49756,0.39101,0.58651,0.26882
23.688,0.49267,0.38905,0.57674,0.26882
23.696,0.4868,0.38807,0.56696,0.27077
23.704,0.48192,0.38612,0.55621,0.27664
23.712,0.47703,0.38514,0.54643,0.28837
23.72,0.47116,0.38319,0.5347,0.30694
23.728,0.46432,0.38221,0.52395,0.33333
23.736,0.45748,0.38319,0.5132,0.36755
23.744,0.44966,0.38416,0.50244,0.4086
23.752,0.44184,0.38416,0.49169,0.44673
23.76,0.43304,0.38514,0.48094,0.48485
23.768,0.42522,0.3871,0.47116,0.52786
23.776,0.4174,0.38905,0.46237,0.57087
23.784,0.4086,0.38905,0.45357,0.6129
23.792,0.39883,0.38807,0.44477,0.65103
23.8,0.38905,0.38612,0.435,0.68328
23.808,0.3783,0.38319,0.4262,0.7087
23.816,0.36755,0.38221,0.41544,0.72727
23.824,0.35777,0.38123,0.40567,0.73998
23.832,0.348,0.38416,0.39687,0.74682
23.84,0.33822,0.38905,0.38807,0.7478
23.848,0.32845,0.39883,0.37928,0.74487
23.856,0.31965,0.41447,0.37146,0.73803
23.864,0.31183,0.43402,0.36364,0.73021
23.872,0.30401,0.45748,0.35582,0.72043
23.88,0.29717,0.48094,0.34702,0.70968
23.888,0.2913,0.5044,0.3392,0.69795
23.896,0.28641,0.52688,0.33138,0.68426
23.904,0.2825,0.54741,0.32258,0.67058
23.912,0.27859,0.56403,0.31378,0.65494
23.92,0.27664,0.57674,0.30596,0.63832
23.928,0.27468,0.58553,0.29717,0.62268
23.936,0.2737,0.59238,0.28935,0.60606
23.944,0.27273,0.59629,0.28055,0.58944
23.952,0.2737,0.59726,0.27273,0.57576
23.96,0.27468,0.59824,0.26491,0.56305
23.968,0.27664,0.59824,0.25611,0.55034
23.976,0.27957,0.59726,0.24829,0.53959
23.984,0.28152,0.59433,0.24047,0.52884
23.992,0.28446,0.59042,0.23265,0.52004
24,0.28641,0.58651,0.22581,0.5132
24.008,0.28935,0.58162,0.21896,0.50635
24.016,0.2913,0.57478,0.21212,0.49951
24.024,0.29326,0.56598,0.20626,0.49169
24.032,0.29521,0.55425,0.20039,0.48485
24.04,0.29814,0.54252,0.19355,0.47703
24.048,0.29912,0.53079,0.18768,0.46921
24.056,0.3001,0.52004,0.1828,0.46041
24.064,0.3001,0.51026,0.17693,0.45064
24.072,0.30108,0.50342,0.17204,0.43988
24.08,0.3001,0.49756,0.16813,0.43011
24.088,0.3001,0.49267,0.16422,0.42033
24.096,0.29912,0.48876,0.16031,0.41153
24.104,0.29814,0.48778,0.1564,0.40371
24.112,0.29717,0.48485,0.15347,0.39589
24.12,0.29619,0.48192,0.15152,0.38905
24.128,0.29423,0.47898,0.14858,0.38221
24.136,0.29228,0.47605,0.14663,0.37439
24.144,0.29032,0.47312,0.14467,0.36755
24.152,0.28935,0.47019,0.14272,0.3607
24.16,0.28739,0.46725,0.14174,0.35582
24.168,0.28543,0.46334,0.13978,0.34897
24.176,0.2825,0.45943,0.13881,0.34213
24.184,0.28055,0.45552,0.13783,0.33529
24.192,0.27859,0.45161,0.13685,0.3304
24.2,0.27664,0.44673,0.13587,0.32551
24.208,0.27468,0.44282,0.1349,0.3216
24.216,0.27175,0.43891,0.1349,0.31867
24.224,0.26979,0.43597,0.13392,0.31574
24.232,0.26784,0.43304,0.13392,0.31378
24.24,0.26588,0.43109,0.1349,0.31085
24.248,0.26393,0.42815,0.1349,0.3089
24.256,0.26295,0.42522,0.13587,0.30694
24.264,0.261,0.42229,0.13685,0.30499
24.272,0.25904,0.42033,0.13783,0.30303
24.28,0.25806,0.41838,0.13881,0.30108
24.288,0.25611,0.41642,0.13978,0.29814
24.296,0.25415,0.41447,0.14076,0.29619
24.304,0.2522,0.41447,0.14174,0.29423
24.312,0.25024,0.41349,0.14272,0.2913
24.32,0.24829,0.41349,0.1437,0.28935
24.328,0.24633,0.41251,0.1437,0.28641
24.336,0.2434,0.41056,0.1437,0.28348
24.344,0.24145,0.40958,0.1437,0.28055
24.352,0.23851,0.4086,0.14467,0.27761
24.36,0.2346,0.4086,0.14467,0.27566
24.368,0.22972,0.4086,0.14467,0.2737
24.376,0.22581,0.4086,0.14467,0.27077
24.384,0.21896,0.4086,0.14467,0.26882
24.392,0.2131,0.41056,0.14565,0.26686
24.4,0.20723,0.41251,0.14663,0.26491
24.408,0.20039,0.41544,0.14761,0.26393
24.416,0.19453,0.41642,0.14858,0.26295
24.424,0.18768,0.4174,0.14956,0.26197
24.432,0.18084,0.4174,0.15054,0.26002
24.44,0.17302,0.41642,0.15152,0.25709
24.448,0.16422,0.41544,0.15347,0.25611
24.456,0.1564,0.41447,0.15543,0.25513
24.464,0.14858,0.41447,0.15738,0.25318
24.472,0.14174,0.4174,0.15934,0.25024
24.48,0.13587,0.42326,0.16129,0.24829
24.488,0.12903,0.43206,0.16325,0.24829
24.496,0.12317,0.44575,0.1652,0.2522
24.504,0.11828,0.46432,0.16716,0.261
24.512,0.11241,0.48583,0.17009,0.27664
24.52,0.10753,0.50831,0.17204,0.30108
24.528,0.10362,0.53079,0.17498,0.33431
24.536,0.099707,0.55132,0.17693,0.37341
24.544,0.096774,0.56696,0.17889,0.41153
24.552,0.093842,0.57771,0.18084,0.45064
24.56,0.091887,0.58847,0.1828,0.49658
24.568,0.089932,0.59726,0.18377,0.5435
24.576,0.089932,0.60411,0.18573,0.58847
24.584,0.088954,0.60802,0.18671,0.62952
24.592,0.088954,0.60997,0.18866,0.66471
24.6,0.088954,0.61095,0.18866,0.69404
24.608,0.089932,0.60997,0.18964,0.71554
24.616,0.090909,0.60704,0.18964,0.73021
24.624,0.090909,0.60313,0.19062,0.739
24.632,0.091887,0.59824,0.18964,0.74096
24.64,0.091887,0.59335,0.18964,0.73998
24.648,0.091887,0.58651,0.18964,0.73509
24.656,0.091887,0.57869,0.18866,0.72825
24.664,0.091887,0.56989,0.18866,0.72043
24.672,0.090909,0.55914,0.18768,0.70968
24.68,0.090909,0.54741,0.18671,0.69795
24.688,0.087977,0.53568,0.18671,0.68524
24.696,0.086022,0.52297,0.18573,0.67058
24.704,0.083089,0.5132,0.18475,0.65591
24.712,0.080156,0.50538,0.18377,0.64125
24.72,0.078201,0.49951,0.1828,0.62561
24.728,0.076246,0.49462,0.18182,0.60997
24.736,0.074291,0.49071,0.18084,0.59531
24.744,0.072336,0.48974,0.17889,0.58162
24.752,0.071359,0.48876,0.17791,0.56989
24.76,0.069404,0.4868,0.17693,0.55816
24.768,0.067449,0.48485,0.17498,0.54643
24.776,0.066471,0.48094,0.17302,0.5347
24.784,0.065494,0.47703,0.17107,0.52493
24.792,0.065494,0.4741,0.16911,0.51613
24.8,0.065494,0.47019,0.16813,0.50831
24.808,0.066471,0.46628,0.16618,0.50049
24.816,0.067449,0.46139,0.16422,0.49267
24.824,0.069404,0.4565,0.16325,0.48583
24.832,0.071359,0.45161,0.16227,0.47801
24.84,0.074291,0.4477,0.16031,0.46921
24.848,0.078201,0.44282,0.15934,0.46139
24.856,0.083089,0.43891,0.15738,0.45357
24.864,0.088954,0.43402,0.1564,0.44575
24.872,0.095797,0.43011,0.15445,0.43597
24.88,0.10264,0.42717,0.15249,0.4262
24.888,0.11046,0.42522,0.15152,0.4174
24.896,0.11828,0.42424,0.15054,0.4086
24.904,0.12708,0.42229,0.14956,0.40078
24.912,0.13685,0.42229,0.14858,0.39394
24.92,0.14663,0.42131,0.14858,0.3871
24.928,0.15738,0.41935,0.14761,0.38123
24.936,0.16813,0.41935,0.14761,0.37439
24.944,0.17889,0.41935,0.14663,0.3695
24.952,0.18866,0.41838,0.14663,0.36461
24.96,0.19844,0.41642,0.14663,0.35875
24.968,0.20821,0.41447,0.14663,0.35288
24.976,0.21896,0.41153,0.14761,0.34702
24.984,0.22972,0.40958,0.14761,0.34115
24.992,0.24145,0.40665,0.14858,0.33627
25,0.25318,0.40469,0.14956,0.33138
25.008,0.26491,0.40274,0.15054,0.32747
25.016,0.27664,0.40176,0.15152,0.32454
25.024,0.28739,0.40274,0.15249,0.3216
25.032,0.29912,0.40274,0.15347,0.31867
25.04,0.3089,0.40371,0.15543,0.31574
25.048,0.31867,0.40371,0.1564,0.31281
25.056,0.32649,0.40469,0.15836,0.30987
25.064,0.33431,0.40469,0.16031,0.30792
25.072,0.34311,0.40371,0.16227,0.30596
25.08,0.35093,0.40274,0.16422,0.30401
25.088,0.35973,0.40176,0.16618,0.30303
25.096,0.36755,0.40078,0.16813,0.30108
25.104,0.37537,0.3998,0.17009,0.3001
25.112,0.38319,0.40176,0.17107,0.29814
25.12,0.39003,0.40665,0.17302,0.29521
25.128,0.39785,0.41447,0.17498,0.29032
25.136,0.40567,0.42326,0.17595,0.28543
25.144,0.41349,0.43402,0.17791,0.28152
25.152,0.42229,0.45161,0.17889,0.27957
25.16,0.43206,0.4741,0.17986,0.27664
25.168,0.44282,0.49658,0.18182,0.27468
25.176,0.45357,0.51808,0.18377,0.27273
25.184,0.4653,0.53861,0.18573,0.27175
25.192,0.47801,0.55718,0.18768,0.26979
25.2,0.48876,0.57283,0.18964,0.26882
25.208,0.50049,0.58358,0.19062,0.26784
25.216,0.51222,0.5914,0.19257,0.26686
25.224,0.52297,0.59531,0.19453,0.26588
25.232,0.53568,0.59726,0.19648,0.26491
25.24,0.54741,0.59726,0.19941,0.26393
25.248,0.56109,0.59531,0.20235,0.26295
25.256,0.5738,0.59433,0.20626,0.26197
25.264,0.58553,0.59335,0.21017,0.26002
25.272,0.59726,0.5914,0.21408,0.25904
25.28,0.60802,0.58847,0.21896,0.25904
25.288,0.61877,0.58358,0.22287,0.26002
25.296,0.6305,0.57576,0.22776,0.26686
25.304,0.64125,0.565,0.23265,0.27859
25.312,0.65298,0.55132,0.23754,0.29619
25.32,0.66471,0.53666,0.2434,0.3216
25.328,0.67644,0.52199,0.24927,0.35386
25.336,0.68817,0.51124,0.25611,0.39198
